C:\MSDCHEM\1\DATA\SERINA\20170928 LACTONE_STD_CURVE\10.d 28 Sep 17   6:14 pm
Start of data points
5.09262,135073
5.09833,142682
5.10407,140607
5.10978,142549
5.1155,140312
5.12123,140688
5.12695,141980
5.13267,147328
5.1384,147177
5.14412,154509
5.14983,151493
5.15557,151495
5.16128,154053
5.167,151429
5.17273,152285
5.17845,152226
5.18417,153279
5.18988,146941
5.19562,144747
5.20133,139642
5.20705,137635
5.21278,130204
5.2185,127395
5.22422,121294
5.22995,120100
5.23567,117248
5.24138,110684
5.24712,108467
5.25283,105246
5.25855,103123
5.26428,102301
5.27,95918
5.27572,92937
5.28145,92016
5.28717,86590
5.29288,89228
5.29862,85917
5.30433,82976
5.31005,84062
5.31578,80516
5.3215,79912
5.32722,81202
5.33293,78206
5.33867,78838
5.34438,79920
5.3501,78132
5.35583,75151
5.36155,80176
5.36727,77010
5.373,75240
5.37872,73479
5.38443,74354
5.39017,71066
5.39588,69245
5.4016,72520
5.40733,71723
5.41305,71033
5.41877,70466
5.4245,72081
5.43022,70114
5.43593,70101
5.44167,72091
5.44738,71117
5.4531,69827
5.45882,68452
5.46455,69470
5.47027,64633
5.47598,66591
5.48172,66310
5.48743,70245
5.49315,68887
5.49888,67851
5.5046,66594
5.51032,66280
5.51605,65172
5.52177,67273
5.52748,63577
5.53322,65350
5.53893,66321
5.54465,66053
5.55038,65507
5.5561,65769
5.56182,65545
5.56755,63831
5.57327,64188
5.57898,64535
5.5847,64433
5.59043,61329
5.59615,65341
5.60187,65713
5.6076,63751
5.61332,65524
5.61903,64962
5.62477,61959
5.63048,62163
5.6362,58999
5.64193,58683
5.64765,60216
5.65337,60773
5.6591,63470
5.66482,61002
5.67053,60737
5.67627,61307
5.68198,59657
5.6877,60009
5.69343,61515
5.69915,59712
5.70487,58405
5.71058,60042
5.71632,60097
5.72203,58841
5.72775,59552
5.73348,58601
5.7392,59028
5.74492,56246
5.75065,60551
5.75637,58591
5.76208,57959
5.76782,59309
5.77353,56553
5.77925,57578
5.78498,58684
5.7907,58020
5.79642,55511
5.80215,57199
5.80787,57188
5.81358,56143
5.81932,55376
5.82503,53942
5.83075,56334
5.83647,57049
5.8422,59844
5.84792,61797
5.85363,58242
5.85937,59251
5.86508,57317
5.8708,55490
5.87653,56914
5.88225,56850
5.88797,57622
5.8937,55581
5.89942,54466
5.90513,52541
5.91087,54676
5.91658,53793
5.9223,53817
5.92803,54877
5.93375,53676
5.93947,55246
5.9452,55500
5.95092,53888
5.95663,52938
5.96235,51979
5.96808,53448
5.9738,51040
5.97952,50216
5.98525,52344
5.99097,51530
5.99668,50476
6.00242,52974
6.00813,53674
6.01385,52676
6.01958,51608
6.0253,52094
6.03102,50147
6.03675,49719
6.04247,51911
6.04818,48387
6.05392,51664
6.05963,49422
6.06535,50475
6.07108,48587
6.0768,48957
6.08252,52218
6.08823,49354
6.09397,49696
6.09968,50801
6.1054,49367
6.11113,50529
6.11685,50396
6.12257,46583
6.1283,49837
6.13402,49163
6.13973,47190
6.14547,46406
6.15118,48510
6.1569,47351
6.16263,48824
6.16835,46725
6.17407,47500
6.1798,46964
6.18552,47557
6.19123,47434
6.19697,46670
6.20268,46719
6.2084,47462
6.21412,49278
6.21985,47391
6.22557,47708
6.23128,46458
6.23702,46134
6.24273,46565
6.24845,44698
6.25418,46990
6.2599,49030
6.26562,47235
6.27135,47330
6.27707,46978
6.28278,46246
6.28852,44086
6.29423,47075
6.29995,47036
6.30568,47811
6.3114,48296
6.31712,47692
6.32285,45448
6.32857,44989
6.33428,46062
6.34,46288
6.34573,48236
6.35145,46807
6.35717,47097
6.3629,45155
6.36862,44962
6.37433,44057
6.38007,45072
6.38578,48121
6.3915,45944
6.39723,46164
6.40295,46229
6.40867,44393
6.4144,45792
6.42012,46413
6.42583,45089
6.43157,46216
6.43728,46006
6.443,44346
6.44873,45972
6.45445,45293
6.46017,45876
6.46588,44871
6.47162,44334
6.47733,45123
6.48305,46138
6.48878,45577
6.4945,44163
6.50022,45657
6.50595,42278
6.51167,45964
6.51738,42666
6.52312,45675
6.52883,43727
6.53455,42617
6.54028,45508
6.546,43623
6.55172,43605
6.55745,45697
6.56317,45002
6.56888,42838
6.57462,43886
6.58033,41389
6.58605,43036
6.59177,43019
6.5975,42494
6.60322,42231
6.60893,44078
6.61467,42549
6.62038,42622
6.6261,43200
6.63183,41713
6.63755,42787
6.64327,41465
6.649,43243
6.65472,41656
6.66043,43180
6.66617,45679
6.67188,42963
6.6776,42795
6.68333,42675
6.68905,42509
6.69477,42119
6.7005,43797
6.70622,42877
6.71193,43352
6.71765,41984
6.72338,43609
6.7291,43171
6.73482,42781
6.74055,42617
6.74627,41645
6.75198,42482
6.75772,44136
6.76343,41477
6.76915,40627
6.77488,41644
6.7806,42830
6.78632,40839
6.79205,40673
6.79777,40599
6.80348,40495
6.80922,42319
6.81493,39140
6.82065,40554
6.82638,41255
6.8321,39747
6.83782,38924
6.84353,41461
6.84927,42200
6.85498,40263
6.8607,38949
6.86643,40334
6.87215,40334
6.87787,41380
6.8836,40463
6.88932,39696
6.89503,39757
6.90077,39650
6.90648,40639
6.9122,39005
6.91793,41124
6.92365,39452
6.92937,40377
6.9351,38046
6.94082,39285
6.94653,40091
6.95227,38832
6.95798,40956
6.9637,38952
6.96942,38019
6.97515,39685
6.98087,40551
6.98658,40785
6.99232,40678
6.99803,38119
7.00375,38507
7.00948,37399
7.0152,39381
7.02092,40181
7.02665,39638
7.03237,41243
7.03808,39508
7.04382,40238
7.04953,38650
7.05525,40063
7.06098,39764
7.0667,38034
7.07242,39146
7.07815,40152
7.08387,39657
7.08958,40196
7.0953,37353
7.10103,40495
7.10675,38692
7.11247,39290
7.1182,38718
7.12392,38082
7.12963,40283
7.13537,38705
7.14108,39871
7.1468,39540
7.15253,40868
7.15825,39183
7.16397,39944
7.1697,38556
7.17542,37369
7.18113,38713
7.18687,38125
7.19258,39795
7.1983,38118
7.20403,36649
7.20975,39185
7.21547,38441
7.22118,39607
7.22692,37604
7.23263,35008
7.23835,40170
7.24408,36497
7.2498,36323
7.25552,37577
7.26125,37693
7.26697,38385
7.27268,36689
7.27842,36708
7.28413,40064
7.28985,37054
7.29558,39801
7.3013,38497
7.30702,36695
7.31275,35537
7.31847,35847
7.32418,38390
7.32992,37847
7.33563,37994
7.34135,37374
7.34707,38106
7.3528,37565
7.35852,38393
7.36423,37834
7.36997,38996
7.37568,39158
7.3814,37623
7.38713,38296
7.39285,38573
7.39857,37426
7.4043,38747
7.41002,37734
7.41573,36859
7.42147,40492
7.42718,36365
7.4329,37394
7.43863,38692
7.44435,38257
7.45007,36958
7.4558,38025
7.46152,37941
7.46723,40128
7.47295,39679
7.47868,39009
7.4844,37568
7.49012,36861
7.49585,36785
7.50157,38117
7.50728,38201
7.51302,37312
7.51873,38806
7.52445,35224
7.53018,37791
7.5359,35758
7.54162,35748
7.54735,36629
7.55307,36769
7.55878,36158
7.56452,36429
7.57023,37992
7.57595,34691
7.58168,37939
7.5874,38272
7.59312,36936
7.59883,36000
7.60457,37525
7.61028,37925
7.616,38418
7.62173,38012
7.62745,38091
7.63317,37337
7.6389,36809
7.64462,37511
7.65033,38361
7.65607,35883
7.66178,38562
7.6675,36570
7.67323,40896
7.67895,37803
7.68467,36722
7.6904,37435
7.69612,39403
7.70183,36337
7.70757,37152
7.71328,35144
7.719,36858
7.72472,35804
7.73045,37736
7.73617,37068
7.74188,35924
7.74762,36818
7.75333,35987
7.75905,35985
7.76478,34577
7.7705,35129
7.77622,37524
7.78195,37113
7.78767,35023
7.79338,38076
7.79912,36633
7.80483,36479
7.81055,35687
7.81628,34251
7.822,35411
7.82772,36677
7.83345,38129
7.83917,36414
7.84488,35790
7.8506,38077
7.85633,39195
7.86205,35223
7.86777,35266
7.8735,36937
7.87922,36897
7.88493,37977
7.89067,33752
7.89638,36371
7.9021,35844
7.90783,37674
7.91355,36254
7.91927,34057
7.925,37780
7.93072,38292
7.93643,35570
7.94217,38176
7.94788,37118
7.9536,37614
7.95933,37559
7.96505,34508
7.97077,36841
7.97648,36183
7.98222,34242
7.98793,34787
7.99365,36799
7.99938,36128
8.0051,36839
8.01082,36136
8.01655,34761
8.02227,36601
8.02798,34541
8.03372,36097
8.03943,33508
8.04515,37275
8.05088,34817
8.0566,37720
8.06232,35836
8.06805,36470
8.07377,36521
8.07948,32824
8.08522,34925
8.09093,35803
8.09665,33896
8.10237,35834
8.1081,35585
8.11382,36908
8.11953,35398
8.12527,37662
8.13098,35536
8.1367,35521
8.14243,35980
8.14815,35646
8.15387,36809
8.1596,36163
8.16532,37587
8.17103,37690
8.17677,36813
8.18248,34869
8.1882,36039
8.19393,35946
8.19965,35359
8.20537,36801
8.2111,38380
8.21682,36998
8.22253,36183
8.22825,35783
8.23398,34687
8.2397,33772
8.24542,36153
8.25115,35682
8.25687,35091
8.26258,34134
8.26832,36647
8.27403,36911
8.27975,34186
8.28548,36060
8.2912,36957
8.29692,36447
8.30265,35881
8.30837,34388
8.31408,36599
8.31982,32132
8.32553,33929
8.33125,37341
8.33698,34848
8.3427,33313
8.34842,33772
8.35413,34735
8.35987,35735
8.36558,35928
8.3713,33801
8.37703,34080
8.38275,36595
8.38847,35574
8.3942,34198
8.39992,35061
8.40563,33581
8.41137,33033
8.41708,34006
8.4228,34853
8.42853,33386
8.43425,34114
8.43997,33747
8.4457,33693
8.45142,34020
8.45713,34489
8.46287,34796
8.46858,34384
8.4743,34208
8.48002,35004
8.48575,34370
8.49147,33312
8.49718,33350
8.50292,36021
8.50863,35150
8.51435,35317
8.52008,35462
8.5258,35360
8.53152,35102
8.53725,32469
8.54297,35906
8.54868,35382
8.55442,35306
8.56013,34426
8.56585,36684
8.57158,34652
8.5773,33055
8.58302,35350
8.58875,36212
8.59447,35686
8.60018,33625
8.6059,35077
8.61163,34822
8.61735,35518
8.62307,34002
8.6288,33984
8.63452,33990
8.64023,33558
8.64597,31860
8.65168,33697
8.6574,34102
8.66313,35011
8.66885,32486
8.67457,34781
8.6803,33606
8.68602,32650
8.69173,32710
8.69747,32533
8.70318,35169
8.7089,32493
8.71463,33360
8.72035,33255
8.72607,33136
8.73178,33526
8.73752,32305
8.74323,32148
8.74895,32741
8.75468,34980
8.7604,33911
8.76612,33698
8.77185,34860
8.77757,34576
8.78328,34292
8.78902,34407
8.79473,33790
8.80045,36609
8.80618,32766
8.8119,34656
8.81762,34714
8.82335,32839
8.82907,36811
8.83478,34958
8.84052,32125
8.84623,32456
8.85195,32498
8.85767,34174
8.8634,33501
8.86912,32046
8.87483,33251
8.88057,34173
8.88628,33567
8.892,35813
8.89773,33975
8.90345,33160
8.90917,33023
8.9149,32895
8.92062,32513
8.92633,34839
8.93207,33027
8.93778,34590
8.9435,33251
8.94923,33866
8.95495,34280
8.96067,36225
8.9664,34640
8.97212,34108
8.97783,33561
8.98355,35134
8.98928,36046
8.995,34270
9.00072,35977
9.00645,33108
9.01217,34692
9.01788,33983
9.02362,33044
9.02933,33958
9.03505,32799
9.04078,33625
9.0465,31986
9.05222,32872
9.05795,33908
9.06367,35965
9.06938,33726
9.07512,35494
9.08083,34141
9.08655,32954
9.09228,33394
9.098,35028
9.10372,33055
9.10943,34269
9.11517,33720
9.12088,33422
9.1266,36328
9.13233,34570
9.13805,36687
9.14377,46943
9.1495,60798
9.15522,82057
9.16093,98637
9.16667,88983
9.17238,63218
9.1781,49673
9.18383,38713
9.18955,35823
9.19527,35163
9.201,34599
9.20672,36292
9.21243,38471
9.21817,35907
9.22388,35546
9.2296,33007
9.23532,33942
9.24105,34337
9.24677,35406
9.25248,34671
9.25822,34715
9.26393,32235
9.26965,34287
9.27538,35222
9.2811,33166
9.28682,33647
9.29255,33137
9.29827,34862
9.30398,34184
9.30972,32376
9.31543,34223
9.32115,30338
9.32688,33644
9.3326,34058
9.33832,33588
9.34405,32153
9.34977,33897
9.35548,32514
9.3612,34511
9.36693,33465
9.37265,34830
9.37837,36042
9.3841,35333
9.38982,36378
9.39553,34622
9.40127,33829
9.40698,34759
9.4127,33550
9.41843,35077
9.42415,33118
9.42987,33626
9.4356,34662
9.44132,33856
9.44703,35594
9.45277,34576
9.45848,34935
9.4642,32934
9.46993,32560
9.47565,32510
9.48137,33936
9.48708,33323
9.49282,33504
9.49853,34145
9.50425,33604
9.50998,33455
9.5157,34799
9.52142,35028
9.52715,34076
9.53287,32478
9.53858,35147
9.54432,35606
9.55003,35018
9.55575,36738
9.56148,34125
9.5672,34209
9.57292,36658
9.57865,34597
9.58437,34375
9.59008,36807
9.59582,33284
9.60153,35544
9.60725,34757
9.61298,35665
9.6187,36451
9.62442,35555
9.63013,36778
9.63587,36375
9.64158,35833
9.6473,33419
9.65303,34568
9.65875,35436
9.66447,37298
9.6702,36250
9.67592,37053
9.68163,35736
9.68737,38654
9.69308,33888
9.6988,37400
9.70453,41317
9.71025,48418
9.71597,55806
9.7217,61229
9.72742,59467
9.73313,55355
9.73887,55583
9.74458,55861
9.7503,55373
9.75602,58293
9.76175,59456
9.76747,63113
9.77318,63651
9.77892,61689
9.78463,59318
9.79035,59812
9.79608,58535
9.8018,53729
9.80752,53431
9.81325,52092
9.81897,48725
9.82468,50109
9.83042,47511
9.83613,48007
9.84185,44395
9.84758,46231
9.8533,46368
9.85902,44042
9.86475,43998
9.87047,41976
9.87618,45178
9.8819,45220
9.88763,40070
9.89335,44032
9.89907,42127
9.9048,43045
9.91052,42666
9.91623,40871
9.92197,41242
9.92768,42205
9.9334,42500
9.93913,41807
9.94485,41431
9.95057,40681
9.9563,43302
9.96202,40755
9.96773,40228
9.97347,41130
9.97918,40842
9.9849,42240
9.99063,40973
9.99635,43480
10.0021,39936
10.0078,42921
10.0135,38822
10.0192,42920
10.025,42525
10.0307,40522
10.0364,41525
10.0421,41086
10.0479,40167
10.0536,39644
10.0593,39742
10.065,40948
10.0707,39251
10.0765,41201
10.0822,38221
10.0879,39378
10.0936,41864
10.0994,42282
10.1051,40030
10.1108,40200
10.1165,41775
10.1222,39585
10.128,41366
10.1337,39723
10.1394,38849
10.1451,40306
10.1508,37689
10.1566,38918
10.1623,38398
10.168,38577
10.1737,38126
10.1795,37248
10.1852,40174
10.1909,39032
10.1966,40811
10.2023,36051
10.2081,38252
10.2138,41174
10.2195,38630
10.2252,40881
10.231,38986
10.2367,42020
10.2424,39714
10.2481,39191
10.2538,39726
10.2596,38562
10.2653,38053
10.271,37938
10.2767,38032
10.2825,39144
10.2882,39276
10.2939,39563
10.2996,39633
10.3053,38704
10.3111,36174
10.3168,37851
10.3225,36066
10.3282,37609
10.334,38645
10.3397,37348
10.3454,38891
10.3511,37647
10.3568,37501
10.3626,34682
10.3683,35446
10.374,36662
10.3797,36610
10.3854,37333
10.3912,37947
10.3969,36799
10.4026,36613
10.4083,37539
10.4141,37680
10.4198,37067
10.4255,36745
10.4312,35366
10.4369,38509
10.4427,38632
10.4484,37493
10.4541,36989
10.4598,39621
10.4656,37942
10.4713,37427
10.477,37844
10.4827,39244
10.4884,36679
10.4942,39063
10.4999,37276
10.5056,36460
10.5113,37347
10.5171,35354
10.5228,37572
10.5285,36977
10.5342,39347
10.5399,34921
10.5457,37844
10.5514,38158
10.5571,38132
10.5628,36494
10.5686,37267
10.5743,37811
10.58,37437
10.5857,38004
10.5914,37273
10.5972,36797
10.6029,36955
10.6086,36079
10.6143,37944
10.6201,39939
10.6258,42057
10.6315,40384
10.6372,40095
10.6429,39171
10.6487,37632
10.6544,36824
10.6601,36481
10.6658,34362
10.6715,36248
10.6773,37007
10.683,34778
10.6887,34088
10.6944,34889
10.7002,37012
10.7059,35822
10.7116,35719
10.7173,34763
10.723,36045
10.7288,36099
10.7345,35781
10.7402,32420
10.7459,33310
10.7517,33513
10.7574,34991
10.7631,34024
10.7688,35201
10.7745,32265
10.7803,33971
10.786,35114
10.7917,34741
10.7974,35770
10.8032,33596
10.8089,32864
10.8146,32856
10.8203,33842
10.826,35219
10.8318,32054
10.8375,33937
10.8432,33049
10.8489,34006
10.8547,33712
10.8604,34922
10.8661,34787
10.8718,33383
10.8775,32125
10.8833,34310
10.889,33182
10.8947,31341
10.9004,32711
10.9061,32548
10.9119,33663
10.9176,32340
10.9233,34864
10.929,34931
10.9348,33013
10.9405,32769
10.9462,32858
10.9519,33114
10.9576,32240
10.9634,33245
10.9691,33117
10.9748,33357
10.9805,34024
10.9863,34035
10.992,33510
10.9977,34229
11.0034,35762
11.0091,34411
11.0149,34752
11.0206,34732
11.0263,34101
11.032,35270
11.0378,34116
11.0435,36057
11.0492,37067
11.0549,36706
11.0606,38937
11.0664,38737
11.0721,43590
11.0778,43812
11.0835,48311
11.0893,51954
11.095,54505
11.1007,58633
11.1064,63638
11.1121,68610
11.1179,67943
11.1236,71507
11.1293,69750
11.135,69789
11.1407,68486
11.1465,69334
11.1522,67512
11.1579,66763
11.1636,67419
11.1694,63711
11.1751,60910
11.1808,58055
11.1865,58701
11.1922,56477
11.198,56819
11.2037,54555
11.2094,52357
11.2151,51415
11.2209,52191
11.2266,51917
11.2323,49015
11.238,50703
11.2437,50048
11.2495,47787
11.2552,47827
11.2609,48075
11.2666,49753
11.2724,49741
11.2781,51288
11.2838,51648
11.2895,52256
11.2952,51389
11.301,50879
11.3067,51546
11.3124,51416
11.3181,49786
11.3239,48708
11.3296,47056
11.3353,44624
11.341,46449
11.3467,45449
11.3525,45440
11.3582,45095
11.3639,42209
11.3696,42775
11.3754,43582
11.3811,42021
11.3868,41320
11.3925,40761
11.3982,42159
11.404,41256
11.4097,39525
11.4154,40929
11.4211,40007
11.4268,37876
11.4326,39488
11.4383,38368
11.444,37960
11.4497,38165
11.4555,38361
11.4612,36959
11.4669,37909
11.4726,35798
11.4783,39722
11.4841,36757
11.4898,37659
11.4955,36441
11.5012,35581
11.507,37746
11.5127,36319
11.5184,35978
11.5241,35142
11.5298,36961
11.5356,36508
11.5413,36641
11.547,37274
11.5527,36352
11.5585,36612
11.5642,35799
11.5699,35158
11.5756,35961
11.5813,37166
11.5871,35435
11.5928,34902
11.5985,35357
11.6042,36751
11.61,35702
11.6157,34386
11.6214,36132
11.6271,33130
11.6328,36171
11.6386,34811
11.6443,35797
11.65,33478
11.6557,35611
11.6614,32152
11.6672,34036
11.6729,37291
11.6786,35748
11.6843,34937
11.6901,34872
11.6958,35456
11.7015,35153
11.7072,35137
11.7129,33531
11.7187,33952
11.7244,32629
11.7301,32229
11.7358,32924
11.7416,32255
11.7473,33719
11.753,34189
11.7587,34065
11.7644,33170
11.7702,34267
11.7759,32363
11.7816,31728
11.7873,34077
11.7931,35258
11.7988,33561
11.8045,35008
11.8102,33359
11.8159,34924
11.8217,33391
11.8274,33898
11.8331,33661
11.8388,35196
11.8446,30780
11.8503,32703
11.856,32039
11.8617,31707
11.8674,33005
11.8732,32813
11.8789,36509
11.8846,37801
11.8903,37764
11.896,35829
11.9018,33962
11.9075,35497
11.9132,34262
11.9189,33617
11.9247,35119
11.9304,33407
11.9361,33641
11.9418,34253
11.9475,33740
11.9533,33992
11.959,34861
11.9647,33374
11.9704,33383
11.9762,33496
11.9819,33048
11.9876,34884
11.9933,33189
11.999,33990
12.0048,32490
12.0105,33819
12.0162,32719
12.0219,33045
12.0277,32632
12.0334,33794
12.0391,33697
12.0448,34475
12.0505,32170
12.0563,32481
12.062,33928
12.0677,32323
12.0734,32946
12.0792,34600
12.0849,34195
12.0906,36095
12.0963,33825
12.102,35142
12.1078,33817
12.1135,33403
12.1192,34633
12.1249,31945
12.1307,31177
12.1364,32859
12.1421,31987
12.1478,33653
12.1535,32435
12.1593,34170
12.165,34112
12.1707,34488
12.1764,34786
12.1821,33750
12.1879,35112
12.1936,34893
12.1993,32716
12.205,34800
12.2108,33658
12.2165,31690
12.2222,34238
12.2279,34166
12.2336,34281
12.2394,31802
12.2451,32951
12.2508,31058
12.2565,34332
12.2623,32279
12.268,32862
12.2737,32583
12.2794,31515
12.2851,33353
12.2909,34077
12.2966,32438
12.3023,33945
12.308,32456
12.3138,32405
12.3195,33093
12.3252,33855
12.3309,32722
12.3366,32255
12.3424,32605
12.3481,32234
12.3538,34519
12.3595,32182
12.3653,33396
12.371,33163
12.3767,31931
12.3824,32579
12.3881,32607
12.3939,35568
12.3996,35831
12.4053,34257
12.411,34166
12.4167,34109
12.4225,33649
12.4282,33079
12.4339,34346
12.4396,34673
12.4454,34485
12.4511,34068
12.4568,32984
12.4625,34117
12.4682,34930
12.474,32770
12.4797,34005
12.4854,33471
12.4911,34502
12.4969,33457
12.5026,33986
12.5083,32742
12.514,33814
12.5197,34142
12.5255,34558
12.5312,33698
12.5369,34384
12.5426,34298
12.5484,33399
12.5541,34475
12.5598,34143
12.5655,34705
12.5712,35107
12.577,35212
12.5827,35663
12.5884,35054
12.5941,32676
12.5999,36290
12.6056,32676
12.6113,36446
12.617,34861
12.6227,34636
12.6285,33400
12.6342,34274
12.6399,34210
12.6456,34800
12.6513,36740
12.6571,34435
12.6628,34658
12.6685,35903
12.6742,35931
12.68,35204
12.6857,35826
12.6914,33242
12.6971,34686
12.7028,34053
12.7086,35729
12.7143,37768
12.72,35470
12.7257,35303
12.7315,34171
12.7372,33558
12.7429,36073
12.7486,36447
12.7543,34051
12.7601,34273
12.7658,35102
12.7715,33981
12.7772,36285
12.783,35290
12.7887,33920
12.7944,34268
12.8001,36666
12.8058,36098
12.8116,35630
12.8173,34592
12.823,35217
12.8287,34744
12.8345,39770
12.8402,36878
12.8459,36922
12.8516,37227
12.8573,38048
12.8631,38311
12.8688,35733
12.8745,35845
12.8802,35212
12.886,35085
12.8917,34903
12.8974,34619
12.9031,36706
12.9088,35265
12.9146,35471
12.9203,35007
12.926,36054
12.9317,35144
12.9374,34493
12.9432,36510
12.9489,36608
12.9546,34696
12.9603,36130
12.9661,36062
12.9718,36479
12.9775,37202
12.9832,35855
12.9889,36089
12.9947,37777
13.0004,35746
13.0061,37959
13.0118,34163
13.0176,32559
13.0233,36064
13.029,36115
13.0347,35301
13.0404,35147
13.0462,36947
13.0519,37616
13.0576,37923
13.0633,36908
13.0691,37222
13.0748,37117
13.0805,33878
13.0862,37317
13.0919,39368
13.0977,37040
13.1034,37370
13.1091,34699
13.1148,35872
13.1206,37670
13.1263,37347
13.132,35503
13.1377,38576
13.1434,39735
13.1492,38030
13.1549,35458
13.1606,40739
13.1663,39310
13.172,41755
13.1778,40986
13.1835,43612
13.1892,44771
13.1949,42428
13.2007,42025
13.2064,41591
13.2121,40373
13.2178,39674
13.2235,40766
13.2293,40333
13.235,40300
13.2407,39110
13.2464,40293
13.2522,40993
13.2579,40393
13.2636,39895
13.2693,39857
13.275,41241
13.2808,43011
13.2865,41939
13.2922,42553
13.2979,42971
13.3037,42286
13.3094,40535
13.3151,41659
13.3208,41425
13.3265,41828
13.3323,42144
13.338,44444
13.3437,42733
13.3494,42825
13.3552,43713
13.3609,45509
13.3666,45819
13.3723,45663
13.378,44209
13.3838,43868
13.3895,43583
13.3952,45899
13.4009,44720
13.4066,43507
13.4124,44473
13.4181,44606
13.4238,45014
13.4295,45804
13.4353,44681
13.441,45380
13.4467,46540
13.4524,46285
13.4581,48340
13.4639,46776
13.4696,45619
13.4753,46698
13.481,47439
13.4868,46533
13.4925,47404
13.4982,44031
13.5039,46940
13.5096,49017
13.5154,47896
13.5211,48063
13.5268,49072
13.5325,48443
13.5383,48342
13.544,49737
13.5497,48715
13.5554,49289
13.5611,49864
13.5669,47107
13.5726,48858
13.5783,48510
13.584,51480
13.5898,49618
13.5955,49601
13.6012,48690
13.6069,49860
13.6126,50252
13.6184,50332
13.6241,50561
13.6298,49499
13.6355,51468
13.6413,50215
13.647,50736
13.6527,51174
13.6584,51108
13.6641,50684
13.6699,50247
13.6756,51870
13.6813,50272
13.687,52747
13.6927,52517
13.6985,53845
13.7042,53423
13.7099,52540
13.7156,53021
13.7214,51015
13.7271,56779
13.7328,54364
13.7385,55586
13.7442,55380
13.75,56028
13.7557,53899
13.7614,55481
13.7671,54925
13.7729,60076
13.7786,62097
13.7843,65331
13.79,62708
13.7957,63762
13.8015,60646
13.8072,60125
13.8129,58161
13.8186,58177
13.8244,60411
13.8301,57989
13.8358,59978
13.8415,59570
13.8472,58611
13.853,58621
13.8587,60555
13.8644,59937
13.8701,62891
13.8759,64563
13.8816,71257
13.8873,74501
13.893,69046
13.8987,67723
13.9045,66265
13.9102,69672
13.9159,63718
13.9216,64642
13.9273,66996
13.9331,64164
13.9388,66329
13.9445,62617
13.9502,66713
13.956,67216
13.9617,68427
13.9674,66385
13.9731,68601
13.9788,70572
13.9846,70019
13.9903,71819
13.996,72959
14.0017,71616
14.0075,68184
14.0132,72000
14.0189,68990
14.0246,69397
14.0303,69506
14.0361,71535
14.0418,70848
14.0475,73886
14.0532,67843
14.059,71404
14.0647,72383
14.0704,71042
14.0761,71682
14.0818,71226
14.0876,70158
14.0933,76106
14.099,79100
14.1047,82844
14.1105,82129
14.1162,80799
14.1219,77375
14.1276,76358
14.1333,77507
14.1391,77846
14.1448,76060
14.1505,77611
14.1562,73055
14.162,75114
14.1677,76767
14.1734,75862
14.1791,75782
14.1848,77587
14.1906,78303
14.1963,77390
14.202,77637
14.2077,81266
14.2134,77988
14.2192,79543
14.2249,79585
14.2306,77818
14.2363,78591
14.2421,80797
14.2478,80734
14.2535,83306
14.2592,81064
14.2649,82292
14.2707,82254
14.2764,80988
14.2821,77608
14.2878,78660
14.2936,81158
14.2993,80946
14.305,80105
14.3107,82461
14.3164,82475
14.3222,83420
14.3279,81584
14.3336,85452
14.3393,84918
14.3451,84058
14.3508,86219
14.3565,85623
14.3622,80936
14.3679,87425
14.3737,87551
14.3794,84945
14.3851,87200
14.3908,88517
14.3966,87269
14.4023,89494
14.408,89939
14.4137,93250
14.4194,93068
14.4252,89245
14.4309,90145
14.4366,89774
14.4423,91332
14.448,91625
14.4538,90953
14.4595,95331
14.4652,91798
14.4709,91367
14.4767,94727
14.4824,97195
14.4881,93981
14.4938,93258
14.4995,95433
14.5053,94878
14.511,97457
14.5167,96726
14.5224,96977
14.5282,99350
14.5339,101567
14.5396,100563
14.5453,96804
14.551,97852
14.5568,104700
14.5625,101619
14.5682,103781
14.5739,101736
14.5797,100540
14.5854,99244
14.5911,101442
14.5968,100254
14.6025,104044
14.6083,102263
14.614,104037
14.6197,103903
14.6254,106549
14.6312,105560
14.6369,104712
14.6426,105174
14.6483,108821
14.654,103471
14.6598,105794
14.6655,106794
14.6712,108849
14.6769,109608
14.6826,108893
14.6884,108265
14.6941,110529
14.6998,109656
14.7055,108983
14.7113,109319
14.717,109588
14.7227,110837
14.7284,111787
14.7341,111065
14.7399,110560
14.7456,111656
14.7513,113075
14.757,109730
14.7628,113873
14.7685,110741
14.7742,110037
14.7799,116176
14.7856,117266
14.7914,114507
14.7971,117247
14.8028,116885
14.8085,119418
14.8143,118577
14.82,119696
14.8257,117702
14.8314,117113
14.8371,116569
14.8429,119661
14.8486,122108
14.8543,117008
14.86,124102
14.8658,122739
14.8715,123978
14.8772,123812
14.8829,123712
14.8886,128312
14.8944,124654
14.9001,121149
14.9058,126757
14.9115,124646
14.9173,124754
14.923,124788
14.9287,126371
14.9344,125543
14.9401,129313
14.9459,127003
14.9516,128511
14.9573,130009
14.963,127013
14.9687,132566
14.9745,132383
14.9802,130505
14.9859,129664
14.9916,128580
14.9974,131074
15.0031,133778
15.0088,136689
15.0145,137642
15.0202,134644
15.026,136057
15.0317,136374
15.0374,135764
15.0431,138684
15.0489,137497
15.0546,140010
15.0603,141540
15.066,144736
15.0717,140916
15.0775,140843
15.0832,142456
15.0889,143390
15.0946,142595
15.1004,143529
15.1061,141425
15.1118,142950
15.1175,143212
15.1232,144021
15.129,143680
15.1347,139667
15.1404,146846
15.1461,142985
15.1519,142961
15.1576,144611
15.1633,147975
15.169,145782
15.1747,149519
15.1805,147106
15.1862,151523
15.1919,151754
15.1976,150449
15.2033,156612
15.2091,149020
15.2148,153416
15.2205,153834
15.2262,156578
15.232,158451
15.2377,158743
15.2434,161510
15.2491,161023
15.2548,157430
15.2606,160351
15.2663,158837
15.272,162699
15.2777,165399
15.2835,175242
15.2892,178582
15.2949,177317
15.3006,175789
15.3063,175963
15.3121,171688
15.3178,174150
15.3235,169069
15.3292,176119
15.335,173879
15.3407,172848
15.3464,176121
15.3521,176447
15.3578,173327
15.3636,173989
15.3693,174574
15.375,175491
15.3807,176496
15.3865,177695
15.3922,179293
15.3979,174871
15.4036,182828
15.4093,178074
15.4151,176922
15.4208,177779
15.4265,182689
15.4322,179662
15.4379,182782
15.4437,183423
15.4494,182843
15.4551,182161
15.4608,185846
15.4666,181472
15.4723,188282
15.478,187186
15.4837,184377
15.4894,186116
15.4952,184795
15.5009,190180
15.5066,188582
15.5123,190236
15.5181,188900
15.5238,192358
15.5295,191210
15.5352,191019
15.5409,193551
15.5467,195933
15.5524,195028
15.5581,195997
15.5638,199532
15.5696,195999
15.5753,202626
15.581,200645
15.5867,199286
15.5924,197248
15.5982,202422
15.6039,200261
15.6096,202870
15.6153,206081
15.6211,202439
15.6268,202542
15.6325,205400
15.6382,206205
15.6439,206901
15.6497,206284
15.6554,210271
15.6611,205626
15.6668,208714
15.6726,209284
15.6783,210667
15.684,215202
15.6897,214939
15.6954,214488
15.7012,217716
15.7069,220757
15.7126,217954
15.7183,214686
15.724,223989
15.7298,220585
15.7355,222298
15.7412,224960
15.7469,219300
15.7527,222064
15.7584,216875
15.7641,223835
15.7698,226103
15.7755,223371
15.7813,228912
15.787,232061
15.7927,228680
15.7984,227759
15.8042,231608
15.8099,230989
15.8156,233461
15.8213,238721
15.827,237419
15.8328,234316
15.8385,239019
15.8442,242108
15.8499,240696
15.8557,243642
15.8614,239749
15.8671,242541
15.8728,244006
15.8785,240776
15.8843,251122
15.89,244219
15.8957,246353
15.9014,246788
15.9072,245124
15.9129,243928
15.9186,244123
15.9243,253069
15.93,249524
15.9358,255745
15.9415,256694
15.9472,251662
15.9529,257177
15.9586,257518
15.9644,262188
15.9701,261257
15.9758,255482
15.9815,257998
15.9873,259419
15.993,252281
15.9987,262228
16.0044,259028
16.0101,256804
16.0159,267418
16.0216,265813
16.0273,264601
16.033,263638
16.0388,263405
16.0445,265572
16.0502,263493
16.0559,267825
16.0616,270194
16.0674,268903
16.0731,268218
16.0788,269579
16.0845,273330
16.0903,271619
16.096,273836
16.1017,277183
16.1074,279280
16.1131,275431
16.1188,274687
16.1246,277699
16.1303,280759
16.136,276725
16.1417,282975
16.1475,277149
16.1532,278232
16.1589,287763
16.1646,284315
16.1703,286270
16.1761,287276
16.1818,286770
16.1875,287984
16.1932,290405
16.199,294440
16.2047,293578
16.2104,290392
16.2161,288049
16.2219,289775
16.2276,290592
16.2333,289443
16.239,296221
16.2447,299361
16.2505,297033
16.2562,297008
16.2619,295618
16.2676,299736
16.2734,298434
16.2791,304436
16.2848,303738
16.2905,303861
16.2962,306096
16.302,301312
16.3077,312232
16.3134,311391
16.3191,308065
16.3249,315641
16.3306,315397
16.3363,314827
16.342,317997
16.3477,315055
16.3534,321528
16.3592,314762
16.3649,321797
16.3706,321843
16.3763,322271
16.3821,336867
16.3878,335334
16.3935,339460
16.3992,342096
16.4049,336969
16.4107,338339
16.4164,339095
16.4221,338659
16.4278,335876
16.4336,338603
16.4393,334819
16.445,341937
16.4507,336094
16.4565,341236
16.4622,336363
16.4679,334263
16.4736,338386
16.4793,342156
16.4851,341312
16.4908,339181
16.4965,342263
16.5022,343625
16.508,352705
16.5137,352010
16.5194,347092
16.5251,352616
16.5308,360233
16.5366,350791
16.5423,351592
16.548,352056
16.5537,352972
16.5594,351079
16.5652,350443
16.5709,350535
16.5766,356216
16.5823,356103
16.588,360285
16.5938,353257
16.5995,363999
16.6052,367444
16.6109,366987
16.6167,363777
16.6224,363570
16.6281,364135
16.6338,368274
16.6396,372502
16.6453,362719
16.651,366479
16.6567,373990
16.6625,373495
16.6682,372333
16.6739,379460
16.6796,377188
16.6853,373666
16.6911,381532
16.6968,382837
16.7025,380106
16.7082,389838
16.7139,387683
16.7197,390814
16.7254,394902
16.7311,392931
16.7368,390348
16.7426,387441
16.7483,393571
16.754,398321
16.7597,397697
16.7654,401729
16.7712,409995
16.7769,403035
16.7826,409626
16.7883,407462
16.794,406235
16.7998,407873
16.8055,411466
16.8112,408708
16.8169,409929
16.8226,413848
16.8284,409554
16.8341,406177
16.8398,416371
16.8455,414969
16.8513,420083
16.857,419654
16.8627,420743
16.8684,419583
16.8742,424184
16.8799,436896
16.8856,434614
16.8913,437286
16.8971,440158
16.9028,436197
16.9085,439097
16.9142,440540
16.9199,437909
16.9257,442533
16.9314,437308
16.9371,450549
16.9428,448862
16.9485,456289
16.9543,459273
16.96,452979
16.9657,454751
16.9714,460970
16.9772,454218
16.9829,461049
16.9886,465390
16.9943,464666
17,470004
17.0058,472258
17.0115,465831
17.0172,472355
17.0229,472432
17.0286,473903
17.0344,481142
17.0401,478192
17.0458,477687
17.0515,479162
17.0573,478916
17.063,479751
17.0687,488433
17.0744,486937
17.0802,495971
17.0859,490688
17.0916,487521
17.0973,497545
17.103,492118
17.1088,499076
17.1145,497835
17.1202,499639
17.1259,505618
17.1317,510330
17.1374,510334
17.1431,503786
17.1488,510642
17.1545,519615
17.1603,513752
17.166,510074
17.1717,508601
17.1774,517573
17.1832,518711
17.1889,519545
17.1946,516470
17.2003,529778
17.206,533409
17.2117,527569
17.2175,530126
17.2232,537360
17.2289,530115
17.2346,537136
17.2404,547830
17.2461,549457
17.2518,544859
17.2575,544853
17.2632,553590
17.269,556016
17.2747,562251
17.2804,552081
17.2861,548608
17.2919,554200
17.2976,551313
17.3033,551092
17.309,556208
17.3148,558697
17.3205,559239
17.3262,559714
17.3319,579942
17.3376,570287
17.3434,577947
17.3491,585486
17.3548,588790
17.3605,580483
17.3663,579712
17.372,594790
17.3777,590253
17.3834,597137
17.3891,588059
17.3949,596005
17.4006,598724
17.4063,603636
17.412,599780
17.4178,610934
17.4235,621883
17.4292,631526
17.4349,627251
17.4406,624353
17.4463,625255
17.4521,628414
17.4578,628700
17.4635,634641
17.4692,631885
17.475,632040
17.4807,629705
17.4864,636705
17.4921,642379
17.4979,640736
17.5036,647592
17.5093,643863
17.515,640742
17.5207,652346
17.5265,652328
17.5322,654146
17.5379,654143
17.5436,658170
17.5494,646598
17.5551,659689
17.5608,670006
17.5665,658330
17.5722,671647
17.578,671808
17.5837,670048
17.5894,678973
17.5951,668844
17.6009,672943
17.6066,663014
17.6123,661044
17.618,660247
17.6237,664868
17.6295,670567
17.6352,668572
17.6409,669960
17.6466,666363
17.6524,670109
17.6581,675259
17.6638,678582
17.6695,674175
17.6752,675172
17.6809,679245
17.6867,677528
17.6924,674793
17.6981,675138
17.7038,678070
17.7096,678954
17.7153,688966
17.721,690464
17.7267,679289
17.7325,690994
17.7382,678579
17.7439,685969
17.7496,691740
17.7553,685362
17.7611,675847
17.7668,679559
17.7725,678229
17.7782,677075
17.784,685221
17.7897,682789
17.7954,674721
17.8011,684313
17.8068,691699
17.8126,683520
17.8183,690043
17.824,688546
17.8297,686082
17.8355,682589
17.8412,679501
17.8469,676250
17.8526,689135
17.8583,678360
17.8641,684841
17.8698,679055
17.8755,684995
17.8812,681513
17.887,691052
17.8927,690642
17.8984,685613
17.9041,687066
17.9098,698936
17.9156,692709
17.9213,690332
17.927,682379
17.9327,684722
17.9385,684394
17.9442,681668
17.9499,691090
17.9556,694500
17.9613,701273
17.9671,696079
17.9728,700715
17.9785,706022
17.9842,697933
17.9899,698790
17.9957,705591
18.0014,711396
18.0071,708553
18.0128,701772
18.0186,704006
18.0243,706230
18.03,700512
18.0357,684801
18.0414,693112
18.0472,698677
18.0529,698255
18.0586,702371
18.0643,704326
18.0701,704292
18.0758,698696
18.0815,706117
18.0872,702063
18.0929,710074
18.0986,707368
18.1044,699191
18.1101,685924
18.1158,689702
18.1215,698752
18.1273,696173
18.133,700107
18.1387,715792
18.1444,708417
18.1502,711469
18.1559,700958
18.1616,699754
18.1673,700821
18.1731,704886
18.1788,708941
18.1845,698625
18.1902,704178
18.1959,704471
18.2017,710181
18.2074,719988
18.2131,711086
18.2188,711447
18.2245,701068
18.2303,710713
18.236,718585
18.2417,708564
18.2474,710083
18.2532,703390
18.2589,714961
18.2646,718122
18.2703,702820
18.276,714730
18.2818,714327
18.2875,711974
18.2932,724246
18.2989,710612
18.3047,716052
18.3104,711225
18.3161,719312
18.3218,712780
18.3275,711722
18.3333,706714
18.339,708808
18.3447,719039
18.3504,718096
18.3562,713110
18.3619,707129
18.3676,714944
18.3733,720267
18.379,713750
18.3848,721437
18.3905,712940
18.3962,716261
18.4019,714865
18.4077,712314
18.4134,721751
18.4191,717171
18.4248,717402
18.4305,722238
18.4363,721766
18.442,723739
18.4477,726422
18.4534,711521
18.4591,704871
18.4649,709504
18.4706,715161
18.4763,716098
18.482,715128
18.4878,720825
18.4935,721593
18.4992,724544
18.5049,732782
18.5106,724514
18.5164,729311
18.5221,722850
18.5278,719818
18.5335,716085
18.5392,719561
18.545,723965
18.5507,713952
18.5564,727337
18.5621,712515
18.5679,716240
18.5736,718337
18.5793,704909
18.585,721647
18.5908,720280
18.5965,719161
18.6022,720108
18.6079,716695
18.6136,720989
18.6194,724967
18.6251,728910
18.6308,739060
18.6365,733496
18.6423,731959
18.648,734119
18.6537,731668
18.6594,731045
18.6651,735321
18.6709,730679
18.6766,723603
18.6823,726628
18.688,736774
18.6938,732787
18.6995,737308
18.7052,732168
18.7109,735509
18.7166,735021
18.7224,738258
18.7281,734819
18.7338,731248
18.7395,728309
18.7452,722946
18.751,723925
18.7567,728253
18.7624,722147
18.7681,736225
18.7738,725610
18.7796,741650
18.7853,735291
18.791,730938
18.7967,742689
18.8025,727946
18.8082,727461
18.8139,736853
18.8196,736112
18.8254,745726
18.8311,735328
18.8368,739993
18.8425,740566
18.8482,739909
18.854,742558
18.8597,741446
18.8654,730553
18.8711,733705
18.8769,746803
18.8826,741010
18.8883,749202
18.894,745391
18.8997,742420
18.9055,732768
18.9112,738914
18.9169,743644
18.9226,739926
18.9284,745005
18.9341,746409
18.9398,737920
18.9455,743854
18.9512,741097
18.957,734427
18.9627,742421
18.9684,744859
18.9741,746941
18.9798,744735
18.9856,759432
18.9913,755416
18.997,761365
19.0027,747031
19.0085,760439
19.0142,748339
19.0199,752023
19.0256,753542
19.0313,758446
19.0371,745710
19.0428,761919
19.0485,755165
19.0542,756557
19.06,765052
19.0657,761366
19.0714,763813
19.0771,757047
19.0828,763948
19.0886,763442
19.0943,763599
19.1,764102
19.1057,766658
19.1115,766323
19.1172,762423
19.1229,760503
19.1286,761711
19.1343,755326
19.1401,760553
19.1458,771331
19.1515,763416
19.1572,764945
19.163,756122
19.1687,762764
19.1744,764930
19.1801,759256
19.1858,775768
19.1915,772110
19.1973,765030
19.203,775760
19.2087,762599
19.2144,746793
19.2202,756208
19.2259,760615
19.2316,759292
19.2373,773626
19.2431,770157
19.2488,771291
19.2545,767002
19.2602,764646
19.2659,769333
19.2717,766485
19.2774,766218
19.2831,772398
19.2888,765840
19.2946,774527
19.3003,769169
19.306,770510
19.3117,772577
19.3174,766477
19.3232,762838
19.3289,762949
19.3346,768734
19.3403,770008
19.3461,770955
19.3518,769321
19.3575,769821
19.3632,773236
19.3689,773629
19.3747,767101
19.3804,764761
19.3861,762014
19.3918,767668
19.3976,777860
19.4033,774987
19.409,765827
19.4147,768940
19.4204,770435
19.4262,764010
19.4319,773344
19.4376,771071
19.4433,781435
19.4491,777224
19.4548,777019
19.4605,768495
19.4662,774373
19.4719,771987
19.4777,772223
19.4834,768773
19.4891,766527
19.4948,778612
19.5005,761851
19.5063,775296
19.512,773271
19.5177,770959
19.5234,765963
19.5292,762502
19.5349,765028
19.5406,774285
19.5463,780747
19.552,771088
19.5578,765690
19.5635,769913
19.5692,769105
19.5749,764738
19.5807,767360
19.5864,775268
19.5921,773324
19.5978,764308
19.6035,771869
19.6092,780372
19.615,771132
19.6207,782982
19.6264,778399
19.6321,778998
19.6379,772403
19.6436,777575
19.6493,771702
19.655,786753
19.6608,779713
19.6665,783779
19.6722,777770
19.6779,767502
19.6837,764528
19.6894,770334
19.6951,774800
19.7008,776630
19.7065,790313
19.7123,785930
19.718,788044
19.7237,782612
19.7294,781903
19.7351,782352
19.7409,786246
19.7466,785699
19.7523,789860
19.758,798300
19.7638,796278
19.7695,796105
19.7752,797946
19.7809,792807
19.7866,790643
19.7924,792475
19.7981,786782
19.8038,792055
19.8095,793796
19.8153,808003
19.821,809523
19.8267,806736
19.8324,793017
19.8381,807321
19.8439,815083
19.8496,806183
19.8553,799199
19.861,796681
19.8668,803351
19.8725,793322
19.8782,796872
19.8839,806982
19.8896,799899
19.8954,803933
19.9011,788908
19.9068,794483
19.9125,790543
19.9183,801561
19.924,801829
19.9297,801171
19.9354,799284
19.9411,799287
19.9469,791764
19.9526,804247
19.9583,803025
19.964,796627
19.9698,801832
19.9755,803103
19.9812,801440
19.9869,794139
19.9926,808052
19.9984,807151
20.0041,819479
20.0098,808414
20.0155,800685
20.0212,798641
20.027,805317
20.0327,793828
20.0384,806310
20.0441,808706
20.0498,806082
20.0556,800595
20.0613,803851
20.067,801963
20.0727,809255
20.0785,802645
20.0842,813030
20.0899,811087
20.0956,806531
20.1014,818993
20.1071,805683
20.1128,809743
20.1185,801371
20.1242,796154
20.13,795886
20.1357,805218
20.1414,801126
20.1471,796297
20.1529,807864
20.1586,801500
20.1643,800346
20.17,791918
20.1757,800532
20.1815,808898
20.1872,800261
20.1929,803159
20.1986,804726
20.2044,798471
20.2101,796325
20.2158,807300
20.2215,810355
20.2272,808341
20.233,805871
20.2387,808662
20.2444,807013
20.2501,807154
20.2558,798962
20.2616,798126
20.2673,801173
20.273,807951
20.2787,803443
20.2845,793055
20.2902,793469
20.2959,795574
20.3016,805506
20.3073,797654
20.3131,803580
20.3188,804477
20.3245,792405
20.3302,790266
20.336,795378
20.3417,801202
20.3474,797353
20.3531,794296
20.3588,794419
20.3646,794178
20.3703,795170
20.376,795697
20.3817,788871
20.3875,789207
20.3932,799194
20.3989,789202
20.4046,800824
20.4103,800738
20.4161,792477
20.4218,798114
20.4275,800611
20.4332,805435
20.439,795743
20.4447,806870
20.4504,802091
20.4561,793669
20.4618,796304
20.4675,793575
20.4733,787462
20.479,789326
20.4847,786133
20.4904,791744
