C:\MSDCHEM\1\DATA\BECKY\20180124 2 PHASE EXTR 2\1-23-18 MS 3B.d 24 Jan 18   9:17 pm
Start of data points
3.09245,10295
3.09818,10134
3.1039,9295
3.10962,10590
3.11535,10197
3.12107,10757
3.12678,10434
3.13252,10214
3.13823,9715
3.14395,9968
3.14968,10492
3.1554,9062
3.16112,9443
3.16685,9310
3.17257,9608
3.17828,8724
3.184,9303
3.18973,9321
3.19545,8458
3.20117,10187
3.2069,10938
3.21262,9069
3.21833,9715
3.22407,8987
3.22978,8681
3.2355,8600
3.24123,9164
3.24695,7509
3.25267,8311
3.2584,7827
3.26412,8210
3.26983,7971
3.27557,8203
3.28128,7619
3.287,8306
3.29273,7822
3.29845,7175
3.30417,6738
3.30988,6233
3.31562,6002
3.32133,5501
3.32705,5953
3.33278,6283
3.3385,6190
3.34422,5726
3.34995,6720
3.35567,5566
3.36138,5503
3.36712,6273
3.37283,5757
3.37855,6421
3.38428,7267
3.39,5820
3.39572,5586
3.40145,5105
3.40717,5433
3.41288,5035
3.41862,4518
3.42433,5385
3.43005,5235
3.43577,5448
3.4415,5515
3.44722,4520
3.45293,4927
3.45867,5078
3.46438,5647
3.4701,4536
3.47583,4977
3.48155,5068
3.48727,5049
3.493,4534
3.49872,4544
3.50443,5142
3.51017,4850
3.51588,5052
3.5216,4504
3.52733,4304
3.53305,4319
3.53877,4182
3.5445,3875
3.55022,4350
3.55593,5174
3.56165,4396
3.56738,4384
3.5731,4533
3.57882,3454
3.58455,3766
3.59027,3937
3.59598,4605
3.60172,4722
3.60743,3161
3.61315,4461
3.61888,4083
3.6246,3234
3.63032,3262
3.63605,3832
3.64177,3487
3.64748,4026
3.65322,3497
3.65893,3397
3.66465,3527
3.67038,2683
3.6761,2691
3.68182,4155
3.68753,3583
3.69327,3516
3.69898,3699
3.7047,3976
3.71043,3952
3.71615,3348
3.72187,2802
3.7276,3170
3.73332,3600
3.73903,2169
3.74477,4037
3.75048,3394
3.7562,2837
3.76193,2863
3.76765,3420
3.77337,2926
3.7791,2806
3.78482,2660
3.79053,3022
3.79627,3147
3.80198,2386
3.8077,3732
3.81342,2376
3.81915,3018
3.82487,2500
3.83058,3136
3.83632,3832
3.84203,2273
3.84775,2574
3.85348,2457
3.8592,3270
3.86492,2975
3.87065,2237
3.87637,2153
3.88208,3407
3.88782,2432
3.89353,2879
3.89925,2900
3.90498,2737
3.9107,2948
3.91642,2810
3.92215,3258
3.92787,2339
3.93358,2555
3.9393,2808
3.94503,2715
3.95075,2971
3.95647,2208
3.9622,2108
3.96792,2569
3.97363,3093
3.97937,2558
3.98508,2235
3.9908,2711
3.99653,2914
4.00225,2739
4.00797,2187
4.0137,3264
4.01942,1948
4.02513,3234
4.03087,2255
4.03658,2670
4.0423,2652
4.04803,2605
4.05375,2985
4.05947,2319
4.06518,2611
4.07092,3130
4.07663,2681
4.08235,2122
4.08808,2644
4.0938,1931
4.09952,2728
4.10525,1886
4.11097,2669
4.11668,2525
4.12242,3044
4.12813,3530
4.13385,2782
4.13958,2610
4.1453,3053
4.15102,2669
4.15675,1957
4.16247,2193
4.16818,2569
4.17392,2167
4.17963,2374
4.18535,2303
4.19107,2249
4.1968,1976
4.20252,1798
4.20823,1997
4.21397,2078
4.21968,1896
4.2254,1910
4.23113,2268
4.23685,2061
4.24257,1606
4.2483,1292
4.25402,1841
4.25973,2044
4.26547,2022
4.27118,2310
4.2769,1904
4.28263,1409
4.28835,2076
4.29407,2077
4.2998,1864
4.30552,2351
4.31123,1113
4.31695,1902
4.32268,1531
4.3284,2765
4.33412,1827
4.33985,2386
4.34557,2298
4.35128,2187
4.35702,2123
4.36273,2988
4.36845,2236
4.37418,2783
4.3799,2987
4.38562,3080
4.39135,2770
4.39707,2971
4.40278,2709
4.40852,2795
4.41423,2946
4.41995,3288
4.42568,3073
4.4314,2567
4.43712,2765
4.44283,2351
4.44857,2571
4.45428,2333
4.46,2828
4.46573,2043
4.47145,2571
4.47717,2735
4.4829,1954
4.48862,2655
4.49433,2523
4.50007,2410
4.50578,2082
4.5115,2039
4.51723,2243
4.52295,2271
4.52867,2124
4.5344,2371
4.54012,1873
4.54583,1919
4.55157,2262
4.55728,2354
4.563,1936
4.56872,1730
4.57445,2410
4.58017,1752
4.58588,2285
4.59162,1951
4.59733,1950
4.60305,2145
4.60878,2137
4.6145,1972
4.62022,1647
4.62595,2132
4.63167,1718
4.63738,1928
4.64312,2116
4.64883,2632
4.65455,1519
4.66028,1995
4.666,1956
4.67172,2042
4.67745,1427
4.68317,1998
4.68888,2236
4.6946,2410
4.70033,1662
4.70605,1744
4.71177,1796
4.7175,1775
4.72322,2035
4.72893,2104
4.73467,1593
4.74038,1546
4.7461,647
4.75183,1912
4.75755,1911
4.76327,1299
4.769,1733
4.77472,1596
4.78043,2049
4.78617,2120
4.79188,1558
4.7976,1751
4.80333,2074
4.80905,1584
4.81477,1774
4.82048,896
4.82622,1820
4.83193,1826
4.83765,1031
4.84338,1793
4.8491,1349
4.85482,991
4.86055,1368
4.86627,1819
4.87198,1375
4.87772,1989
4.88343,1359
4.88915,1585
4.89488,1492
4.9006,1679
4.90632,1659
4.91205,1227
4.91777,1524
4.92348,1440
4.92922,1056
4.93493,1724
4.94065,1518
4.94637,1610
4.9521,2009
4.95782,1767
4.96353,1147
4.96927,1485
4.97498,1204
4.9807,1464
4.98643,1128
4.99215,1553
4.99787,1428
5.0036,1683
5.00932,1431
5.01503,891
5.02077,1734
5.02648,1840
5.0322,1930
5.03793,4606
5.04365,8368
5.04937,12031
5.0551,13968
5.06082,12940
5.06653,13104
5.07225,15022
5.07798,25213
5.0837,38064
5.08942,47153
5.09515,50450
5.10087,52173
5.10658,51109
5.11232,46532
5.11803,46641
5.12375,42770
5.12948,38872
5.1352,36536
5.14092,34919
5.14665,32101
5.15237,30971
5.15808,27839
5.16382,26811
5.16953,25394
5.17525,22732
5.18098,21273
5.1867,19660
5.19242,17325
5.19813,17986
5.20387,16007
5.20958,14516
5.2153,14183
5.22103,12805
5.22675,12889
5.23247,12256
5.2382,10876
5.24392,10919
5.24963,9560
5.25537,10117
5.26108,8798
5.2668,8299
5.27253,8145
5.27825,7137
5.28397,6711
5.2897,6128
5.29542,5951
5.30113,5680
5.30687,6424
5.31258,5984
5.3183,4971
5.32402,4885
5.32975,4409
5.33547,4640
5.34118,3755
5.34692,4652
5.35263,4416
5.35835,3198
5.36408,3556
5.3698,3230
5.37552,3541
5.38125,3092
5.38697,3417
5.39268,2840
5.39842,2913
5.40413,2486
5.40985,2519
5.41558,2501
5.4213,2356
5.42702,2206
5.43275,3147
5.43847,2036
5.44418,2412
5.4499,2546
5.45563,1795
5.46135,1487
5.46707,1849
5.4728,1854
5.47852,1508
5.48423,1174
5.48997,996
5.49568,2073
5.5014,1303
5.50713,866
5.51285,773
5.51857,1936
5.5243,1688
5.53002,1801
5.53573,1691
5.54147,2064
5.54718,2812
5.5529,2039
5.55863,1575
5.56435,1510
5.57007,1935
5.57578,1724
5.58152,1164
5.58723,1255
5.59295,2065
5.59868,1484
5.6044,1077
5.61012,1496
5.61585,883
5.62157,1097
5.62728,758
5.63302,1071
5.63873,741
5.64445,1197
5.65018,940
5.6559,1236
5.66162,1172
5.66735,1137
5.67307,1664
5.67878,1098
5.68452,1010
5.69023,1538
5.69595,948
5.70167,951
5.7074,486
5.71312,962
5.71883,1012
5.72457,927
5.73028,765
5.736,305
5.74173,975
5.74745,655
5.75317,843
5.7589,728
5.76462,935
5.77033,513
5.77607,1209
5.78178,1247
5.7875,484
5.79323,980
5.79895,749
5.80467,1151
5.8104,683
5.81612,1520
5.82183,695
5.82755,1125
5.83328,1428
5.839,489
5.84472,1110
5.85045,727
5.85617,787
5.86188,1081
5.86762,819
5.87333,509
5.87905,639
5.88478,1013
5.8905,1180
5.89622,637
5.90195,594
5.90767,934
5.91338,832
5.91912,972
5.92483,543
5.93055,664
5.93628,1028
5.942,645
5.94772,947
5.95343,714
5.95917,1281
5.96488,925
5.9706,1193
5.97633,209
5.98205,974
5.98777,799
5.9935,1414
5.99922,977
6.00493,802
6.01067,459
6.01638,939
6.0221,658
6.02783,597
6.03355,894
6.03927,352
6.045,705
6.05072,476
6.05643,556
6.06217,634
6.06788,486
6.0736,526
6.07933,939
6.08505,622
6.09077,343
6.09648,995
6.10222,666
6.10793,322
6.11365,681
6.11938,584
6.1251,1012
6.13082,917
6.13655,257
6.14227,405
6.14798,624
6.15372,1056
6.15943,408
6.16515,919
6.17088,316
6.1766,986
6.18232,518
6.18805,407
6.19377,604
6.19948,307
6.20522,264
6.21093,449
6.21665,288
6.22237,848
6.2281,274
6.23382,517
6.23953,965
6.24527,742
6.25098,832
6.2567,1090
6.26243,329
6.26815,657
6.27387,820
6.2796,909
6.28532,989
6.29103,1042
6.29677,383
6.30248,866
6.3082,692
6.31393,492
6.31965,368
6.32537,938
6.3311,837
6.33682,609
6.34253,1013
6.34825,522
6.35398,736
6.3597,627
6.36542,532
6.37115,786
6.37687,645
6.38258,767
6.38832,573
6.39403,688
6.39975,656
6.40548,468
6.4112,780
6.41692,748
6.42265,711
6.42837,826
6.43408,742
6.43982,487
6.44553,990
6.45125,903
6.45698,608
6.4627,627
6.46842,522
6.47413,630
6.47987,651
6.48558,983
6.4913,1043
6.49703,644
6.50275,740
6.50847,378
6.5142,595
6.51992,317
6.52563,665
6.53137,828
6.53708,914
6.5428,320
6.54853,488
6.55425,775
6.55997,398
6.5657,726
6.57142,829
6.57713,651
6.58287,892
6.58858,875
6.5943,375
6.60002,576
6.60575,447
6.61147,687
6.61718,738
6.62292,841
6.62863,791
6.63435,760
6.64008,946
6.6458,499
6.65152,793
6.65725,385
6.66297,597
6.66868,881
6.67442,579
6.68013,924
6.68585,619
6.69158,605
6.6973,759
6.70302,966
6.70875,581
6.71447,578
6.72018,610
6.7259,496
6.73163,761
6.73735,664
6.74307,802
6.7488,827
6.75452,670
6.76023,399
6.76597,536
6.77168,611
6.7774,856
6.78313,967
6.78885,1077
6.79457,746
6.8003,603
6.80602,831
6.81173,163
6.81747,757
6.82318,659
6.8289,249
6.83463,534
6.84035,854
6.84607,975
6.85178,501
6.85752,676
6.86323,538
6.86895,583
6.87468,712
6.8804,390
6.88612,773
6.89185,483
6.89757,789
6.90328,543
6.90902,423
6.91473,720
6.92045,164
6.92618,573
6.9319,792
6.93762,443
6.94335,689
6.94907,993
6.95478,826
6.96052,664
6.96623,473
6.97195,816
6.97767,372
6.9834,614
6.98912,568
6.99483,1015
7.00057,244
7.00628,598
7.012,154
7.01773,291
7.02345,200
7.02917,794
7.0349,192
7.04062,811
7.04633,676
7.05207,579
7.05778,667
7.0635,212
7.06923,723
7.07495,893
7.08067,360
7.0864,824
7.09212,790
7.09783,809
7.10355,445
7.10928,454
7.115,796
7.12072,884
7.12645,840
7.13217,673
7.13788,976
7.14362,561
7.14933,975
7.15505,818
7.16078,445
7.1665,612
7.17222,875
7.17795,480
7.18367,526
7.18938,694
7.19512,1297
7.20083,1314
7.20655,1951
7.21228,1589
7.218,1471
7.22372,1687
7.22943,1520
7.23517,2507
7.24088,1541
7.2466,1141
7.25233,1421
7.25805,1093
7.26377,842
7.2695,648
7.27522,1141
7.28093,873
7.28667,1127
7.29238,1542
7.2981,2032
7.30383,1800
7.30955,2585
7.31527,1630
7.321,2094
7.32672,1579
7.33243,637
7.33817,848
7.34388,771
7.3496,828
7.35532,702
7.36105,1037
7.36677,364
7.37248,1139
7.37822,861
7.38393,517
7.38965,547
7.39538,647
7.4011,701
7.40682,412
7.41255,594
7.41827,617
7.42398,387
7.42972,215
7.43543,431
7.44115,248
7.44688,396
7.4526,252
7.45832,580
7.46405,577
7.46977,678
7.47548,681
7.4812,1161
7.48693,859
7.49265,385
7.49837,612
7.5041,622
7.50982,601
7.51553,984
7.52127,538
7.52698,363
7.5327,414
7.53843,375
7.54415,831
7.54987,802
7.5556,507
7.56132,862
7.56703,471
7.57277,276
7.57848,939
7.5842,251
7.58993,351
7.59565,406
7.60137,1095
7.60708,681
7.61282,329
7.61853,674
7.62425,460
7.62998,555
7.6357,585
7.64142,689
7.64715,901
7.65287,723
7.65858,686
7.66432,336
7.67003,786
7.67575,668
7.68148,1061
7.6872,667
7.69292,924
7.69865,1128
7.70437,920
7.71008,762
7.71582,1108
7.72153,867
7.72725,1200
7.73297,1049
7.7387,991
7.74442,498
7.75013,338
7.75587,503
7.76158,957
7.7673,1018
7.77303,768
7.77875,987
7.78447,531
7.7902,855
7.79592,567
7.80163,1115
7.80737,807
7.81308,675
7.8188,866
7.82453,924
7.83025,533
7.83597,1053
7.8417,821
7.84742,969
7.85313,472
7.85885,1005
7.86458,824
7.8703,391
7.87602,1169
7.88175,1160
7.88747,407
7.89318,703
7.89892,813
7.90463,695
7.91035,1258
7.91608,1213
7.9218,1522
7.92752,971
7.93325,1300
7.93897,639
7.94468,822
7.95042,826
7.95613,461
7.96185,1312
7.96758,1000
7.9733,1417
7.97902,846
7.98473,687
7.99047,943
7.99618,1029
8.0019,696
8.00763,1149
8.01335,658
8.01907,1056
8.0248,1315
8.03052,861
8.03623,583
8.04197,1340
8.04768,1347
8.0534,1191
8.05913,1279
8.06485,876
8.07057,951
8.0763,1282
8.08202,727
8.08773,1059
8.09347,719
8.09918,728
8.1049,1076
8.11062,1492
8.11635,1180
8.12207,1033
8.12778,1666
8.13352,814
8.13923,1199
8.14495,1258
8.15068,1576
8.1564,1692
8.16212,1456
8.16785,1768
8.17357,1378
8.17928,1376
8.18502,1031
8.19073,1387
8.19645,1196
8.20218,1638
8.2079,1291
8.21362,1015
8.21935,1506
8.22507,1453
8.23078,264
8.2365,1207
8.24223,1373
8.24795,1152
8.25367,1614
8.2594,737
8.26512,1122
8.27083,1431
8.27657,733
8.28228,1125
8.288,1034
8.29373,1550
8.29945,1122
8.30517,1597
8.3109,1020
8.31662,1481
8.32233,896
8.32807,1400
8.33378,689
8.3395,1459
8.34523,1270
8.35095,964
8.35667,712
8.36238,1217
8.36812,1305
8.37383,516
8.37955,1287
8.38528,1313
8.391,1402
8.39672,1745
8.40245,1662
8.40817,1443
8.41388,1209
8.41962,1654
8.42533,936
8.43105,1060
8.43678,1217
8.4425,1037
8.44822,1611
8.45395,1787
8.45967,887
8.46538,1176
8.47112,1519
8.47683,1238
8.48255,1427
8.48827,1458
8.494,1342
8.49972,1399
8.50543,1399
8.51117,661
8.51688,1252
8.5226,973
8.52833,1664
8.53405,1348
8.53977,509
8.5455,883
8.55122,1267
8.55693,933
8.56267,972
8.56838,1312
8.5741,1426
8.57983,1837
8.58555,1464
8.59127,1081
8.597,1228
8.60272,1156
8.60843,1980
8.61415,1411
8.61988,907
8.6256,1733
8.63132,1440
8.63705,1941
8.64277,1756
8.64848,1249
8.65422,1320
8.65993,1843
8.66565,1521
8.67138,1506
8.6771,1377
8.68282,1721
8.68855,1586
8.69427,1874
8.69998,1490
8.70572,1480
8.71143,1511
8.71715,1532
8.72288,1488
8.7286,1342
8.73432,1884
8.74003,1759
8.74577,1301
8.75148,1402
8.7572,1956
8.76293,1924
8.76865,1489
8.77437,2321
8.7801,1099
8.78582,1824
8.79153,1119
8.79727,1206
8.80298,1715
8.8087,1260
8.81443,1687
8.82015,1118
8.82587,1922
8.8316,1944
8.83732,2286
8.84303,1559
8.84877,1501
8.85448,2471
8.8602,1964
8.86592,1901
8.87165,2229
8.87737,2353
8.88308,1822
8.88882,1593
8.89453,2574
8.90025,1261
8.90598,1717
8.9117,1655
8.91742,1282
8.92315,1938
8.92887,2069
8.93458,1835
8.94032,1593
8.94603,1586
8.95175,1352
8.95748,1667
8.9632,1883
8.96892,2338
8.97465,2610
8.98037,3482
8.98608,3750
8.9918,3264
8.99753,3759
9.00325,2258
9.00897,1856
9.0147,1654
9.02042,1358
9.02613,1345
9.03187,1400
9.03758,1957
9.0433,1464
9.04903,2265
9.05475,1914
9.06047,2007
9.0662,1759
9.07192,1737
9.07763,2532
9.08337,2095
9.08908,2094
9.0948,1825
9.10053,1952
9.10625,2294
9.11197,1626
9.11768,1356
9.12342,1318
9.12913,1927
9.13485,1483
9.14058,1656
9.1463,2117
9.15202,2184
9.15775,2239
9.16347,1927
9.16918,2041
9.17492,2051
9.18063,1541
9.18635,1586
9.19208,950
9.1978,1667
9.20352,1395
9.20925,2171
9.21497,1440
9.22068,1589
9.22642,2314
9.23213,1707
9.23785,1768
9.24357,1549
9.2493,2144
9.25502,1677
9.26073,1482
9.26647,1902
9.27218,2042
9.2779,2071
9.28363,1668
9.28935,1938
9.29507,1635
9.3008,1689
9.30652,1680
9.31223,1985
9.31797,1250
9.32368,2017
9.3294,1369
9.33513,1809
9.34085,2380
9.34657,2431
9.3523,1572
9.35802,2385
9.36373,1949
9.36945,1689
9.37518,1715
9.3809,1982
9.38662,1307
9.39235,1869
9.39807,1406
9.40378,1238
9.40952,1570
9.41523,1443
9.42095,2337
9.42668,2022
9.4324,2219
9.43812,1526
9.44385,1534
9.44957,1365
9.45528,2327
9.46102,2271
9.46673,1480
9.47245,1772
9.47818,1324
9.4839,2580
9.48962,2219
9.49533,2367
9.50107,2316
9.50678,2234
9.5125,2028
9.51823,1756
9.52395,1656
9.52967,1703
9.5354,2042
9.54112,1688
9.54683,2399
9.55257,1803
9.55828,1975
9.564,1980
9.56973,1742
9.57545,2159
9.58117,1866
9.5869,2005
9.59262,1585
9.59833,2365
9.60407,2111
9.60978,1951
9.6155,2142
9.62122,1935
9.62695,1612
9.63267,1611
9.63838,1987
9.64412,2456
9.64983,2050
9.65555,1981
9.66128,2079
9.667,2298
9.67272,2108
9.67845,2055
9.68417,1736
9.68988,1848
9.69562,2019
9.70133,2312
9.70705,2085
9.71278,1906
9.7185,2146
9.72422,2626
9.72995,2032
9.73567,2417
9.74138,2174
9.7471,1827
9.75283,2578
9.75855,2036
9.76427,1657
9.77,2077
9.77572,2020
9.78143,2370
9.78717,2412
9.79288,2374
9.7986,2248
9.80433,2657
9.81005,2580
9.81577,1955
9.8215,1659
9.82722,2401
9.83293,2507
9.83867,1255
9.84438,2382
9.8501,2279
9.85583,2563
9.86155,2170
9.86727,1946
9.873,2360
9.87872,2039
9.88443,1798
9.89015,2460
9.89588,1744
9.9016,2339
9.90732,2976
9.91305,2027
9.91877,2102
9.92448,2563
9.93022,2018
9.93593,2235
9.94165,2080
9.94738,2182
9.9531,2198
9.95882,2920
9.96455,2239
9.97027,3195
9.97598,2709
9.98172,3142
9.98743,2602
9.99315,2401
9.99888,1992
10.0046,1221
10.0103,1549
10.016,2238
10.0218,2985
10.0275,2144
10.0332,1962
10.0389,2172
10.0447,2270
10.0504,1519
10.0561,1592
10.0618,1797
10.0675,1776
10.0733,2098
10.079,1737
10.0847,1831
10.0904,1734
10.0962,1724
10.1019,2139
10.1076,1625
10.1133,2408
10.119,2042
10.1248,1828
10.1305,2034
10.1362,1786
10.1419,2240
10.1477,2201
10.1534,2424
10.1591,2991
10.1648,1695
10.1705,2325
10.1763,2061
10.182,2097
10.1877,1899
10.1934,1800
10.1992,1870
10.2049,1730
10.2106,1899
10.2163,2332
10.222,2701
10.2278,2255
10.2335,2608
10.2392,2455
10.2449,1977
10.2507,1893
10.2564,2321
10.2621,1901
10.2678,2307
10.2735,2401
10.2793,1540
10.285,2671
10.2907,3053
10.2964,2232
10.3021,2479
10.3079,2309
10.3136,2298
10.3193,1356
10.325,2412
10.3308,2482
10.3365,2253
10.3422,2613
10.3479,2749
10.3536,1918
10.3594,2414
10.3651,2544
10.3708,1919
10.3765,3045
10.3823,2359
10.388,2501
10.3937,2246
10.3994,2355
10.4051,2225
10.4109,2710
10.4166,3461
10.4223,3750
10.428,5310
10.4338,4203
10.4395,3030
10.4452,2690
10.4509,2657
10.4566,2744
10.4624,2139
10.4681,2450
10.4738,2265
10.4795,2736
10.4853,3158
10.491,3024
10.4967,2079
10.5024,2604
10.5081,1691
10.5139,2734
10.5196,2199
10.5253,3218
10.531,2244
10.5367,1817
10.5425,2647
10.5482,2810
10.5539,2556
10.5596,2540
10.5654,2642
10.5711,2027
10.5768,2752
10.5825,2805
10.5882,2493
10.594,2224
10.5997,2902
10.6054,2591
10.6111,2528
10.6169,2610
10.6226,3136
10.6283,4068
10.634,7279
10.6397,10851
10.6455,16881
10.6512,17875
10.6569,16187
10.6626,9183
10.6684,5877
10.6741,3497
10.6798,2699
10.6855,2955
10.6912,2616
10.697,2222
10.7027,3169
10.7084,2903
10.7141,2458
10.7199,2123
10.7256,2753
10.7313,2747
10.737,2291
10.7427,2835
10.7485,2278
10.7542,2522
10.7599,2686
10.7656,2862
10.7713,2692
10.7771,2593
10.7828,1731
10.7885,2927
10.7942,2743
10.8,2335
10.8057,2766
10.8114,3167
10.8171,2118
10.8228,2149
10.8286,2879
10.8343,3477
10.84,2523
10.8457,4059
10.8515,2452
10.8572,3187
10.8629,2106
10.8686,2478
10.8743,2506
10.8801,3938
10.8858,5263
10.8915,6593
10.8972,5104
10.903,3301
10.9087,4142
10.9144,2798
10.9201,2538
10.9258,2758
10.9316,2516
10.9373,2559
10.943,2091
10.9487,2149
10.9545,2751
10.9602,2312
10.9659,3128
10.9716,2701
10.9773,3100
10.9831,2761
10.9888,3186
10.9945,2956
11.0002,3244
11.006,2927
11.0117,3252
11.0174,4154
11.0231,4156
11.0288,3320
11.0346,3545
11.0403,3313
11.046,3421
11.0517,3172
11.0574,3521
11.0632,3512
11.0689,3654
11.0746,3573
11.0803,2750
11.0861,4065
11.0918,4757
11.0975,3646
11.1032,3698
11.1089,3604
11.1147,4838
11.1204,5301
11.1261,10608
11.1318,14972
11.1376,14177
11.1433,11986
11.149,10868
11.1547,12860
11.1604,23608
11.1662,35793
11.1719,46094
11.1776,46839
11.1833,39206
11.1891,32706
11.1948,26226
11.2005,24329
11.2062,20818
11.2119,18155
11.2177,17017
11.2234,15348
11.2291,14190
11.2348,12289
11.2406,11926
11.2463,11697
11.252,10892
11.2577,10096
11.2634,9753
11.2692,9353
11.2749,9253
11.2806,8704
11.2863,8647
11.292,8319
11.2978,8318
11.3035,9432
11.3092,8566
11.3149,8315
11.3207,8793
11.3264,7590
11.3321,7454
11.3378,6975
11.3435,6756
11.3493,7174
11.355,7157
11.3607,6892
11.3664,6707
11.3722,5530
11.3779,5827
11.3836,6394
11.3893,5737
11.395,6201
11.4008,5964
11.4065,4550
11.4122,5606
11.4179,5371
11.4237,5034
11.4294,5390
11.4351,5828
11.4408,5672
11.4465,6987
11.4523,6115
11.458,5838
11.4637,5636
11.4694,4894
11.4752,5836
11.4809,5332
11.4866,4411
11.4923,4503
11.498,4939
11.5038,4597
11.5095,4623
11.5152,4405
11.5209,4716
11.5266,4779
11.5324,5210
11.5381,5312
11.5438,3985
11.5495,4155
11.5553,5018
11.561,4732
11.5667,4816
11.5724,4507
11.5781,4642
11.5839,4607
11.5896,5176
11.5953,4196
11.601,4432
11.6068,3945
11.6125,4118
11.6182,4231
11.6239,5017
11.6296,3737
11.6354,3658
11.6411,3910
11.6468,3797
11.6525,3884
11.6583,4467
11.664,5106
11.6697,4814
11.6754,4207
11.6811,4439
11.6869,4430
11.6926,3213
11.6983,4358
11.704,5090
11.7098,5182
11.7155,5793
11.7212,5633
11.7269,5094
11.7326,4435
11.7384,4051
11.7441,3810
11.7498,4948
11.7555,3829
11.7613,4313
11.767,3936
11.7727,3904
11.7784,3558
11.7841,4648
11.7899,3936
11.7956,4598
11.8013,4557
11.807,3561
11.8127,4017
11.8185,4319
11.8242,4271
11.8299,4131
11.8356,4671
11.8414,3906
11.8471,3722
11.8528,3104
11.8585,3977
11.8642,3114
11.87,4294
11.8757,4277
11.8814,3383
11.8871,3122
11.8929,4297
11.8986,4118
11.9043,3636
11.91,4003
11.9157,3271
11.9215,4343
11.9272,3511
11.9329,2595
11.9386,4412
11.9444,3102
11.9501,4190
11.9558,4685
11.9615,4691
11.9672,4242
11.973,4031
11.9787,4108
11.9844,4336
11.9901,3730
11.9959,3837
12.0016,3913
12.0073,4292
12.013,4000
12.0187,3462
12.0245,4846
12.0302,5299
12.0359,4768
12.0416,4516
12.0473,2599
12.0531,3964
12.0588,3177
12.0645,3935
12.0702,5271
12.076,4181
12.0817,4453
12.0874,5853
12.0931,7325
12.0988,6972
12.1046,7128
12.1103,7051
12.116,5324
12.1217,3514
12.1275,4622
12.1332,5263
12.1389,4341
12.1446,4563
12.1503,4044
12.1561,3369
12.1618,4699
12.1675,4681
12.1732,4492
12.179,3424
12.1847,3943
12.1904,3896
12.1961,3273
12.2018,5017
12.2076,3840
12.2133,4287
12.219,5212
12.2247,4059
12.2305,4573
12.2362,4253
12.2419,4950
12.2476,4146
12.2533,4797
12.2591,5469
12.2648,5900
12.2705,5701
12.2762,4751
12.2819,4353
12.2877,4772
12.2934,4966
12.2991,4847
12.3048,5209
12.3106,4882
12.3163,5972
12.322,5029
12.3277,4528
12.3334,4289
12.3392,5139
12.3449,5491
12.3506,4418
12.3563,5210
12.3621,4713
12.3678,4365
12.3735,5427
12.3792,5163
12.3849,3973
12.3907,5253
12.3964,5189
12.4021,4389
12.4078,4973
12.4136,5129
12.4193,5989
12.425,5370
12.4307,4559
12.4364,5349
12.4422,5973
12.4479,4629
12.4536,5731
12.4593,6463
12.4651,7329
12.4708,8308
12.4765,9112
12.4822,8467
12.4879,9868
12.4937,8437
12.4994,9149
12.5051,8781
12.5108,11528
12.5166,14837
12.5223,22109
12.528,31446
12.5337,41709
12.5394,48541
12.5452,48732
12.5509,46749
12.5566,43023
12.5623,39401
12.568,38302
12.5738,36620
12.5795,33528
12.5852,30896
12.5909,28960
12.5967,27099
12.6024,22891
12.6081,22601
12.6138,21752
12.6195,20191
12.6253,20254
12.631,18251
12.6367,17618
12.6424,17954
12.6482,15472
12.6539,16740
12.6596,15613
12.6653,14999
12.671,14112
12.6768,15434
12.6825,13951
12.6882,14002
12.6939,13812
12.6997,14368
12.7054,15411
12.7111,16324
12.7168,17496
12.7225,20515
12.7283,19386
12.734,20441
12.7397,19642
12.7454,18235
12.7512,16996
12.7569,17796
12.7626,16682
12.7683,16498
12.774,15864
12.7798,14405
12.7855,14163
12.7912,13425
12.7969,12826
12.8026,11467
12.8084,13118
12.8141,11118
12.8198,11786
12.8255,11367
12.8313,11101
12.837,10315
12.8427,10738
12.8484,10584
12.8541,10312
12.8599,10003
12.8656,10136
12.8713,10047
12.877,11109
12.8828,10642
12.8885,10879
12.8942,10755
12.8999,10809
12.9056,9882
12.9114,9250
12.9171,9257
12.9228,10336
12.9285,9095
12.9343,9377
12.94,9085
12.9457,8485
12.9514,8704
12.9571,8657
12.9629,8625
12.9686,9368
12.9743,9335
12.98,8928
12.9858,8048
12.9915,8698
12.9972,8383
13.0029,8781
13.0086,8176
13.0144,8200
13.0201,8213
13.0258,8386
13.0315,8390
13.0372,8682
13.043,8210
13.0487,7541
13.0544,7506
13.0601,7394
13.0659,8717
13.0716,7986
13.0773,7916
13.083,7969
13.0887,7659
13.0945,8423
13.1002,7527
13.1059,7178
13.1116,8729
13.1174,7662
13.1231,7468
13.1288,7790
13.1345,9257
13.1402,8115
13.146,8129
13.1517,8576
13.1574,7473
13.1631,7411
13.1689,7282
13.1746,7918
13.1803,7981
13.186,7870
13.1917,7683
13.1975,7062
13.2032,6917
13.2089,7190
13.2146,7781
13.2204,6926
13.2261,7965
13.2318,7462
13.2375,7634
13.2432,6718
13.249,7634
13.2547,8168
13.2604,8035
13.2661,7301
13.2719,7813
13.2776,7831
13.2833,7247
13.289,7312
13.2947,7623
13.3005,7535
13.3062,6934
13.3119,7662
13.3176,7662
13.3233,7326
13.3291,6720
13.3348,7351
13.3405,7640
13.3462,7749
13.352,8335
13.3577,9415
13.3634,7489
13.3691,7819
13.3748,7651
13.3806,7671
13.3863,8239
13.392,8252
13.3977,8131
13.4035,7953
13.4092,8540
13.4149,8073
13.4206,8732
13.4263,7940
13.4321,8268
13.4378,8404
13.4435,8842
13.4492,8165
13.455,7879
13.4607,8811
13.4664,7566
13.4721,8966
13.4778,8842
13.4836,8865
13.4893,8875
13.495,7706
13.5007,7632
13.5065,8339
13.5122,8028
13.5179,7708
13.5236,7410
13.5293,8206
13.5351,7709
13.5408,7339
13.5465,8366
13.5522,8249
13.5579,8224
13.5637,8444
13.5694,7579
13.5751,8068
13.5808,7729
13.5866,8486
13.5923,7574
13.598,7669
13.6037,8183
13.6094,9597
13.6152,8087
13.6209,7826
13.6266,8829
13.6323,8801
13.6381,7341
13.6438,7943
13.6495,7598
13.6552,8211
13.6609,7876
13.6667,8027
13.6724,8958
13.6781,8769
13.6838,7841
13.6896,7499
13.6953,7516
13.701,7097
13.7067,7620
13.7124,7903
13.7182,7780
13.7239,8449
13.7296,7672
13.7353,9177
13.7411,8384
13.7468,7768
13.7525,8402
13.7582,8207
13.7639,7312
13.7697,6898
13.7754,8963
13.7811,8499
13.7868,8478
13.7926,7083
13.7983,7884
13.804,8389
13.8097,7875
13.8154,8308
13.8212,8493
13.8269,8412
13.8326,8920
13.8383,9100
13.844,8223
13.8498,7443
13.8555,7449
13.8612,7971
13.8669,7858
13.8727,8567
13.8784,7474
13.8841,8505
13.8898,8068
13.8955,8118
13.9013,7329
13.907,7565
13.9127,8254
13.9184,8447
13.9242,7719
13.9299,8340
13.9356,8054
13.9413,8835
13.947,9055
13.9528,8743
13.9585,11794
13.9642,9368
13.9699,9168
13.9757,8722
13.9814,10007
13.9871,9309
13.9928,8744
13.9985,8331
14.0043,8080
14.01,7849
14.0157,7619
14.0214,9034
14.0272,9821
14.0329,8259
14.0386,7931
14.0443,7765
14.05,8238
14.0558,8377
14.0615,8080
14.0672,8425
14.0729,8271
14.0786,8158
14.0844,8760
14.0901,8005
14.0958,8441
14.1015,7776
14.1073,7808
14.113,8310
14.1187,8245
14.1244,7979
14.1301,8188
14.1359,7911
14.1416,7992
14.1473,9136
14.153,8732
14.1588,8263
14.1645,8989
14.1702,9104
14.1759,7834
14.1816,8993
14.1874,7388
14.1931,8190
14.1988,8893
14.2045,7314
14.2103,7793
14.216,8618
14.2217,8382
14.2274,8862
14.2331,8028
14.2389,7471
14.2446,8445
14.2503,8392
14.256,6673
14.2618,8669
14.2675,9804
14.2732,7950
14.2789,8648
14.2846,9235
14.2904,8789
14.2961,8510
14.3018,8870
14.3075,9145
14.3132,9064
14.319,8761
14.3247,8547
14.3304,7492
14.3361,8624
14.3419,8299
14.3476,8146
14.3533,9245
14.359,7841
14.3647,8324
14.3705,8904
14.3762,8799
14.3819,8719
14.3876,9308
14.3934,8598
14.3991,8930
14.4048,8679
14.4105,9107
14.4162,9334
14.422,9592
14.4277,8202
14.4334,9810
14.4391,8652
14.4449,9119
14.4506,9012
14.4563,8783
14.462,9834
14.4677,8664
14.4735,8688
14.4792,9984
14.4849,8872
14.4906,9224
14.4964,8894
14.5021,9583
14.5078,9105
14.5135,9446
14.5192,8661
14.525,9022
14.5307,7822
14.5364,9455
14.5421,10544
14.5479,9208
14.5536,9499
14.5593,9369
14.565,8919
14.5707,9903
14.5765,9168
14.5822,8702
14.5879,9346
14.5936,9298
14.5993,9975
14.6051,10524
14.6108,10695
14.6165,9470
14.6222,9401
14.628,10552
14.6337,9923
14.6394,10018
14.6451,10169
14.6508,9703
14.6566,10600
14.6623,9712
14.668,11081
14.6737,10735
14.6795,10946
14.6852,10037
14.6909,10179
14.6966,9973
14.7023,9193
14.7081,11363
14.7138,10554
14.7195,9730
14.7252,9229
14.731,10393
14.7367,9548
14.7424,8954
14.7481,10486
14.7538,10779
14.7596,9214
14.7653,9647
14.771,9614
14.7767,10512
14.7825,10238
14.7882,10011
14.7939,9483
14.7996,9515
14.8053,10691
14.8111,10369
14.8168,10862
14.8225,10326
14.8282,11438
14.8339,11738
14.8397,11192
14.8454,11649
14.8511,11351
14.8568,11799
14.8626,12516
14.8683,11471
14.874,11758
14.8797,11239
14.8854,11546
14.8912,11151
14.8969,11533
14.9026,11819
14.9083,13159
14.9141,12512
14.9198,13873
14.9255,12665
14.9312,12806
14.9369,12828
14.9427,12274
14.9484,12259
14.9541,13180
14.9598,12125
14.9656,11868
14.9713,11667
14.977,11729
14.9827,11593
14.9884,11719
14.9942,12814
14.9999,12251
15.0056,12981
15.0113,12988
15.0171,12824
15.0228,13100
15.0285,11653
15.0342,11548
15.0399,12501
15.0457,12139
15.0514,11494
15.0571,11966
15.0628,11651
15.0685,12989
15.0743,12666
15.08,12032
15.0857,12199
15.0914,12258
15.0972,11461
15.1029,11679
15.1086,11627
15.1143,12273
15.12,12929
15.1258,11950
15.1315,12598
15.1372,11944
15.1429,12775
15.1487,13389
15.1544,14241
15.1601,12915
15.1658,12388
15.1715,12337
15.1773,13097
15.183,13456
15.1887,12138
15.1944,13313
15.2002,12058
15.2059,13365
15.2116,12851
15.2173,12867
15.223,13749
15.2288,12693
15.2345,13411
15.2402,13322
15.2459,12972
15.2517,13685
15.2574,13017
15.2631,14278
15.2688,13722
15.2745,15485
15.2803,13727
15.286,14414
15.2917,14533
15.2974,12806
15.3032,14405
15.3089,14254
15.3146,13924
15.3203,14246
15.326,12939
15.3318,14457
15.3375,14348
15.3432,14153
15.3489,14528
15.3546,15397
15.3604,14414
15.3661,15280
15.3718,16196
15.3775,15204
15.3833,16208
15.389,14959
15.3947,14527
15.4004,15756
15.4061,15388
15.4119,14985
15.4176,15910
15.4233,14207
15.429,14251
15.4348,14585
15.4405,14508
15.4462,13951
15.4519,16478
15.4576,16799
15.4634,14362
15.4691,15018
15.4748,16377
15.4805,17538
15.4863,16910
15.492,16390
15.4977,15226
15.5034,15305
15.5091,15373
15.5149,16091
15.5206,16306
15.5263,15814
15.532,15337
15.5378,15878
15.5435,15636
15.5492,17138
15.5549,16828
15.5606,17090
15.5664,16730
15.5721,16522
15.5778,16451
15.5835,17184
15.5892,16479
15.595,17000
15.6007,17116
15.6064,16775
15.6121,18183
15.6179,17090
15.6236,18095
15.6293,17303
15.635,18192
15.6407,17983
15.6465,18446
15.6522,16757
15.6579,18090
15.6636,18280
15.6694,17214
15.6751,18359
15.6808,18034
15.6865,17989
15.6922,17984
15.698,17909
15.7037,18691
15.7094,18407
15.7151,16833
15.7209,18378
15.7266,18657
15.7323,19686
15.738,17498
15.7437,20032
15.7495,17931
15.7552,18008
15.7609,17526
15.7666,17674
15.7724,19295
15.7781,18465
15.7838,17639
15.7895,19510
15.7952,18248
15.801,20092
15.8067,20398
15.8124,19356
15.8181,21133
15.8238,19854
15.8296,19164
15.8353,21158
15.841,19183
15.8467,20356
15.8525,21126
15.8582,20162
15.8639,20794
15.8696,21019
15.8753,23502
15.8811,22753
15.8868,23880
15.8925,21886
15.8982,20883
15.904,20178
15.9097,22074
15.9154,20951
15.9211,21089
15.9268,21759
15.9326,20200
15.9383,22092
15.944,20211
15.9497,21705
15.9555,21932
15.9612,21066
15.9669,22069
15.9726,21386
15.9783,22009
15.9841,21592
15.9898,21521
15.9955,22733
16.0012,23171
16.007,23585
16.0127,21884
16.0184,24218
16.0241,24362
16.0298,25437
16.0356,22219
16.0413,24113
16.047,23111
16.0527,23402
16.0585,23862
16.0642,23635
16.0699,22726
16.0756,23013
16.0813,25642
16.0871,23403
16.0928,23815
16.0985,26191
16.1042,24899
16.1099,26343
16.1157,25636
16.1214,25051
16.1271,28216
16.1328,25917
16.1385,25804
16.1443,25752
16.15,27200
16.1557,26255
16.1614,25517
16.1672,26166
16.1729,25638
16.1786,27372
16.1843,27434
16.19,25662
16.1958,27099
16.2015,26271
16.2072,26659
16.2129,27676
16.2187,27064
16.2244,25674
16.2301,27751
16.2358,27514
16.2416,26283
16.2473,27406
16.253,28052
16.2587,25918
16.2644,28413
16.2702,27420
16.2759,28184
16.2816,26741
16.2873,27825
16.2931,26366
16.2988,27187
16.3045,26736
16.3102,29399
16.3159,27198
16.3217,27627
16.3274,28573
16.3331,26932
16.3388,29448
16.3445,27410
16.3503,28776
16.356,29039
16.3617,29322
16.3674,30825
16.3731,30392
16.3789,28569
16.3846,28997
16.3903,29370
16.396,30452
16.4018,30025
16.4075,31227
16.4132,29372
16.4189,31847
16.4247,31436
16.4304,30697
16.4361,31938
16.4418,30511
16.4475,31654
16.4533,31704
16.459,31226
16.4647,31039
16.4704,32522
16.4762,31817
16.4819,31246
16.4876,32917
16.4933,32210
16.499,30716
16.5048,32455
16.5105,33305
16.5162,31917
16.5219,32118
16.5277,31463
16.5334,34019
16.5391,32239
16.5448,32207
16.5505,32905
16.5562,33984
16.562,32971
16.5677,34495
16.5734,32675
16.5791,33725
16.5849,33901
16.5906,34020
16.5963,33653
16.602,33027
16.6077,34707
16.6135,33278
16.6192,34123
16.6249,34340
16.6306,35080
16.6364,34496
16.6421,34256
16.6478,33658
16.6535,36085
16.6593,35987
16.665,38492
16.6707,35051
16.6764,35839
16.6821,34194
16.6879,36627
16.6936,35659
16.6993,37889
16.705,37953
16.7108,35663
16.7165,36724
16.7222,38131
16.7279,38120
16.7336,37327
16.7394,37645
16.7451,39548
16.7508,39650
16.7565,39684
16.7623,39895
16.768,39059
16.7737,38199
16.7794,39547
16.7851,38695
16.7908,39483
16.7966,38799
16.8023,41421
16.808,40081
16.8137,39459
16.8195,39571
16.8252,39269
16.8309,40414
16.8366,41023
16.8424,38461
16.8481,40160
16.8538,41403
16.8595,41136
16.8652,39715
16.871,41478
16.8767,42566
16.8824,41834
16.8881,42573
16.8939,42182
16.8996,41655
16.9053,42147
16.911,43142
16.9167,44026
16.9225,42315
16.9282,42391
16.9339,40946
16.9396,44369
16.9454,41746
16.9511,43628
16.9568,42924
16.9625,42899
16.9682,44531
16.9739,44438
16.9797,44232
16.9854,44361
16.9911,44094
16.9968,43776
17.0026,45746
17.0083,45184
17.014,46292
17.0197,46149
17.0254,45661
17.0312,45092
17.0369,44518
17.0426,46313
17.0483,47781
17.0541,45838
17.0598,45753
17.0655,47267
17.0712,45748
17.077,46291
17.0827,47105
17.0884,45280
17.0941,45899
17.0998,47984
17.1056,47796
17.1113,46939
17.117,47342
17.1227,46698
17.1285,49253
17.1342,48801
17.1399,46546
17.1456,48822
17.1513,46453
17.1571,47993
17.1628,47343
17.1685,46179
17.1742,48505
17.18,48126
17.1857,46461
17.1914,47944
17.1971,50738
17.2028,49428
17.2085,51101
17.2143,49812
17.22,50753
17.2257,50445
17.2314,49749
17.2372,49963
17.2429,49788
17.2486,49630
17.2543,51897
17.2601,48653
17.2658,50553
17.2715,50295
17.2772,52683
17.283,52201
17.2887,53030
17.2944,51667
17.3001,49984
17.3058,49560
17.3116,52097
17.3173,51645
17.323,51338
17.3287,53923
17.3344,51231
17.3402,51027
17.3459,51162
17.3516,51702
17.3573,51671
17.3631,52027
17.3688,52526
17.3745,50678
17.3802,56640
17.3859,51402
17.3917,52467
17.3974,50995
17.4031,53135
17.4088,52115
17.4145,52431
17.4203,53551
17.426,53942
17.4317,54903
17.4374,53598
17.4432,52929
17.4489,54276
17.4546,54345
17.4603,55297
17.466,54578
17.4718,56111
17.4775,55351
17.4832,55394
17.4889,55832
17.4947,53852
17.5004,54640
17.5061,53732
17.5118,56499
17.5176,55451
17.5233,55408
17.529,54474
17.5347,55567
17.5404,58007
17.5462,55210
17.5519,54477
17.5576,56941
17.5633,58617
17.5691,54723
17.5748,55291
17.5805,58033
17.5862,55788
17.5919,56286
17.5977,57094
17.6034,58817
17.6091,56283
17.6148,56209
17.6205,57976
17.6263,56133
17.632,56230
17.6377,57057
17.6434,55808
17.6492,56747
17.6549,58645
17.6606,55519
17.6663,55798
17.672,54526
17.6778,57581
17.6835,57253
17.6892,60875
17.6949,54846
17.7007,58955
17.7064,57050
17.7121,58591
17.7178,57479
17.7235,56124
17.7293,57289
17.735,56954
17.7407,56123
17.7464,56829
17.7522,58653
17.7579,59384
17.7636,59187
17.7693,59176
17.775,60543
17.7808,60577
17.7865,60527
17.7922,57612
17.7979,57611
17.8037,60036
17.8094,60104
17.8151,56720
17.8208,57926
17.8265,56497
17.8323,61119
17.838,59011
17.8437,58285
17.8494,58935
17.8551,63273
17.8609,60965
17.8666,59893
17.8723,60898
17.878,60506
17.8837,59878
17.8895,61962
17.8952,61898
17.9009,59767
17.9066,60179
17.9124,59748
17.9181,60738
17.9238,61350
17.9295,61985
17.9353,60189
17.941,59733
17.9467,59021
17.9524,60767
17.9581,57644
17.9639,61852
17.9696,59598
17.9753,61090
17.981,62334
17.9868,61571
17.9925,58774
