C:\MSDCHEM\1\DATA\SERINA\20170928 LACTONE_STD_CURVE\3.d 28 Sep 17   3:32 pm
Start of data points
5.09245,76074
5.09817,79666
5.1039,81954
5.10962,79376
5.11533,79698
5.12107,79355
5.12678,81724
5.1325,79993
5.13823,80180
5.14395,83851
5.14967,81738
5.1554,81630
5.16112,83778
5.16683,85355
5.17257,82550
5.17828,80650
5.184,81168
5.18972,81495
5.19545,80888
5.20117,78631
5.20688,76025
5.21262,73290
5.21833,72548
5.22405,71543
5.22978,68400
5.2355,67328
5.24122,66222
5.24695,62403
5.25267,62043
5.25838,59944
5.26412,59512
5.26983,56237
5.27555,54246
5.28128,53933
5.287,54951
5.29272,53023
5.29845,53777
5.30417,52350
5.30988,50394
5.3156,48928
5.32133,48204
5.32705,50467
5.33277,47331
5.3385,49555
5.34422,45721
5.34993,47723
5.35567,45231
5.36138,46786
5.3671,46153
5.37283,44500
5.37855,44144
5.38427,44675
5.39,44509
5.39572,45087
5.40143,45440
5.40717,44503
5.41288,44486
5.4186,44149
5.42433,44584
5.43005,43942
5.43577,45208
5.44148,44005
5.44722,45155
5.45293,44188
5.45865,46458
5.46438,42570
5.4701,44370
5.47582,42754
5.48155,41882
5.48727,41397
5.49298,41378
5.49872,41906
5.50443,39266
5.51015,41409
5.51588,39058
5.5216,40826
5.52732,40448
5.53305,41143
5.53877,40646
5.54448,39235
5.55022,37484
5.55593,39137
5.56165,39482
5.56737,40077
5.5731,39024
5.57882,36962
5.58453,40150
5.59027,38531
5.59598,39805
5.6017,37976
5.60743,36292
5.61315,36634
5.61887,37210
5.6246,38282
5.63032,37301
5.63603,36644
5.64177,36737
5.64748,38837
5.6532,36316
5.65893,38142
5.66465,38193
5.67037,38275
5.6761,36943
5.68182,34486
5.68753,35295
5.69325,35036
5.69898,34991
5.7047,34264
5.71042,36534
5.71615,34682
5.72187,32964
5.72758,35904
5.73332,33909
5.73903,34792
5.74475,35408
5.75048,36661
5.7562,35625
5.76192,32420
5.76765,33835
5.77337,33625
5.77908,32812
5.78482,33744
5.79053,35285
5.79625,35847
5.80198,37930
5.8077,43534
5.81342,51742
5.81913,67993
5.82487,81514
5.83058,100956
5.8363,104782
5.84203,95930
5.84775,84545
5.85347,72214
5.8592,64596
5.86492,55449
5.87063,50340
5.87637,49261
5.88208,43486
5.8878,42875
5.89353,40378
5.89925,40236
5.90497,42027
5.9107,39473
5.91642,37382
5.92213,35704
5.92787,36666
5.93358,36378
5.9393,34248
5.94502,34728
5.95075,33331
5.95647,33526
5.96218,34371
5.96792,37836
5.97363,54350
5.97935,91359
5.98508,148857
5.9908,226888
5.99652,317683
6.00225,417757
6.00797,499420
6.01368,492537
6.01942,420473
6.02513,316057
6.03085,225383
6.03658,157565
6.0423,118034
6.04802,93037
6.05375,79241
6.05947,67873
6.06518,60135
6.0709,53369
6.07663,47888
6.08235,43358
6.08807,41518
6.0938,38770
6.09952,39252
6.10523,33624
6.11097,33823
6.11668,29359
6.1224,30589
6.12813,29369
6.13385,30703
6.13957,31874
6.1453,28826
6.15102,29702
6.15673,29005
6.16247,30132
6.16818,29863
6.1739,29404
6.17963,29204
6.18535,28905
6.19107,26343
6.19678,28693
6.20252,29142
6.20823,28279
6.21395,29035
6.21968,29053
6.2254,27072
6.23112,29059
6.23685,27373
6.24257,27291
6.24828,29484
6.25402,30557
6.25973,32761
6.26545,31468
6.27118,32376
6.2769,32937
6.28262,32567
6.28835,31144
6.29407,31846
6.29978,33337
6.30552,30925
6.31123,29535
6.31695,29518
6.32267,28107
6.3284,28712
6.33412,27937
6.33983,29493
6.34557,28443
6.35128,28218
6.357,28051
6.36273,28365
6.36845,28240
6.37417,28653
6.3799,27507
6.38562,30382
6.39133,28408
6.39707,26945
6.40278,28231
6.4085,28399
6.41423,27674
6.41995,26035
6.42567,26741
6.4314,27766
6.43712,25686
6.44283,27387
6.44855,27139
6.45428,24993
6.46,26360
6.46572,25895
6.47145,25989
6.47717,26159
6.48288,26403
6.48862,28328
6.49433,27535
6.50005,25550
6.50578,26355
6.5115,25888
6.51722,24868
6.52295,25465
6.52867,26317
6.53438,25229
6.54012,25906
6.54583,25946
6.55155,26128
6.55728,26307
6.563,27692
6.56872,27815
6.57443,26308
6.58017,25797
6.58588,25096
6.5916,26057
6.59733,25933
6.60305,27009
6.60877,26018
6.6145,25456
6.62022,25630
6.62593,27293
6.63167,27361
6.63738,27930
6.6431,26881
6.64883,28518
6.65455,27171
6.66027,26308
6.666,25789
6.67172,24480
6.67743,25682
6.68317,25801
6.68888,26399
6.6946,26510
6.70032,26339
6.70605,24908
6.71177,26323
6.71748,24450
6.72322,25368
6.72893,25847
6.73465,24416
6.74038,25501
6.7461,25381
6.75182,25150
6.75755,26049
6.76327,25029
6.76898,25764
6.77472,25331
6.78043,25987
6.78615,25331
6.79188,24387
6.7976,24714
6.80332,25677
6.80905,24514
6.81477,23590
6.82048,24089
6.8262,24107
6.83193,23609
6.83765,26414
6.84337,24166
6.8491,23970
6.85482,23325
6.86053,24513
6.86627,24203
6.87198,22344
6.8777,22862
6.88343,23355
6.88915,22908
6.89487,23664
6.9006,23201
6.90632,23901
6.91203,23671
6.91777,22382
6.92348,22948
6.9292,23207
6.93493,23585
6.94065,23225
6.94637,23577
6.95208,22673
6.95782,22172
6.96353,24173
6.96925,23654
6.97498,22692
6.9807,23648
6.98642,23226
6.99215,24434
6.99787,23614
7.00358,21808
7.00932,23183
7.01503,23546
7.02075,22812
7.02648,22416
7.0322,23141
7.03792,22627
7.04365,23447
7.04937,23991
7.05508,24477
7.06082,22911
7.06653,23087
7.07225,23210
7.07797,23306
7.0837,21123
7.08942,23612
7.09513,22807
7.10087,22223
7.10658,23298
7.1123,24485
7.11803,22071
7.12375,22841
7.12947,22893
7.1352,22834
7.14092,22886
7.14663,22156
7.15237,22333
7.15808,23152
7.1638,23000
7.16953,24653
7.17525,23768
7.18097,24888
7.1867,22585
7.19242,25324
7.19813,24141
7.20385,22520
7.20958,22790
7.2153,24515
7.22102,23143
7.22675,21314
7.23247,24075
7.23818,21544
7.24392,22574
7.24963,23059
7.25535,23021
7.26108,22707
7.2668,22341
7.27252,22578
7.27825,21942
7.28397,22929
7.28968,22343
7.29542,23479
7.30113,23494
7.30685,22056
7.31258,22532
7.3183,23308
7.32402,22897
7.32973,21944
7.33547,22007
7.34118,24509
7.3469,22886
7.35263,22649
7.35835,21396
7.36407,21832
7.3698,21432
7.37552,22811
7.38123,23346
7.38697,22388
7.39268,21488
7.3984,22730
7.40413,21819
7.40985,21041
7.41557,21360
7.4213,23121
7.42702,22169
7.43273,22227
7.43847,24296
7.44418,23581
7.4499,21865
7.45562,21978
7.46135,23377
7.46707,24918
7.47278,24816
7.47852,22612
7.48423,22856
7.48995,22903
7.49568,21476
7.5014,23324
7.50712,24168
7.51285,23978
7.51857,22769
7.52428,21298
7.53002,23614
7.53573,23036
7.54145,22054
7.54718,21906
7.5529,23288
7.55862,27875
7.56435,44501
7.57007,89730
7.57578,174527
7.5815,260529
7.58723,310484
7.59295,280003
7.59867,204321
7.6044,125234
7.61012,72864
7.61583,43075
7.62157,30649
7.62728,26187
7.633,24957
7.63873,23174
7.64445,23244
7.65017,24003
7.6559,22537
7.66162,22243
7.66733,22432
7.67307,21366
7.67878,21185
7.6845,22359
7.69023,21477
7.69595,21813
7.70167,22288
7.70738,21062
7.71312,21871
7.71883,22664
7.72455,21025
7.73028,21969
7.736,21784
7.74172,21647
7.74745,22578
7.75317,22895
7.75888,21535
7.76462,21391
7.77033,21900
7.77605,22032
7.78178,22093
7.7875,20883
7.79322,22179
7.79895,21527
7.80467,21572
7.81038,23360
7.81612,23033
7.82183,23624
7.82755,22622
7.83327,22280
7.839,21882
7.84472,22517
7.85043,21520
7.85617,20645
7.86188,22953
7.8676,22042
7.87333,22101
7.87905,21105
7.88477,23359
7.8905,22312
7.89622,21418
7.90193,22635
7.90767,22696
7.91338,21304
7.9191,22342
7.92483,24473
7.93055,25556
7.93627,26094
7.942,25272
7.94772,22359
7.95343,23277
7.95915,23027
7.96488,22526
7.9706,20683
7.97632,20607
7.98205,20983
7.98777,21708
7.99348,21368
7.99922,21601
8.00493,21682
8.01065,23055
8.01638,22028
8.0221,28642
8.02782,34994
8.03355,39975
8.03927,48717
8.04498,48085
8.05072,41859
8.05643,41169
8.06215,35159
8.06788,33748
8.0736,31998
8.07932,30949
8.08503,29943
8.09077,27931
8.09648,28042
8.1022,28625
8.10793,28163
8.11365,26517
8.11937,26024
8.1251,25423
8.13082,26214
8.13653,25734
8.14227,23400
8.14798,24522
8.1537,24434
8.15943,23477
8.16515,21372
8.17087,24847
8.1766,21983
8.18232,23534
8.18803,21881
8.19377,21891
8.19948,21298
8.2052,23178
8.21093,21555
8.21665,22361
8.22237,21686
8.22808,20809
8.23382,20929
8.23953,21874
8.24525,21363
8.25098,21901
8.2567,21790
8.26242,21125
8.26815,21501
8.27387,20478
8.27958,22794
8.28532,21631
8.29103,20945
8.29675,22194
8.30248,20713
8.3082,20526
8.31392,21610
8.31965,23017
8.32537,24234
8.33108,23693
8.33682,23162
8.34253,23416
8.34825,22365
8.35397,22230
8.3597,22355
8.36542,21270
8.37113,22097
8.37687,21694
8.38258,22107
8.3883,22382
8.39403,21657
8.39975,22016
8.40547,19739
8.4112,18851
8.41692,21832
8.42263,20762
8.42837,22198
8.43408,20372
8.4398,21107
8.44553,22425
8.45125,22005
8.45697,20911
8.4627,20393
8.46842,21791
8.47413,20168
8.47985,20679
8.48558,21019
8.4913,21225
8.49702,21621
8.50275,22648
8.50847,21915
8.51418,21405
8.51992,21028
8.52563,21549
8.53135,24358
8.53708,20815
8.5428,22593
8.54852,21477
8.55425,20222
8.55997,20980
8.56568,19872
8.57142,21017
8.57713,19612
8.58285,20630
8.58858,21531
8.5943,20595
8.60002,21113
8.60573,21182
8.61147,20317
8.61718,21260
8.6229,21911
8.62863,20668
8.63435,19650
8.64007,19937
8.6458,21357
8.65152,21717
8.65723,21894
8.66297,20792
8.66868,21979
8.6744,21407
8.68013,21270
8.68585,19653
8.69157,19800
8.6973,20355
8.70302,21040
8.70873,22267
8.71447,20097
8.72018,20807
8.7259,20070
8.73162,22901
8.73735,20729
8.74307,21734
8.74878,21391
8.75452,21098
8.76023,20680
8.76595,20925
8.77168,20849
8.7774,20495
8.78312,21219
8.78885,21385
8.79457,21668
8.80028,21191
8.80602,21418
8.81173,21575
8.81745,21491
8.82318,20488
8.8289,21099
8.83462,22876
8.84035,21486
8.84607,21110
8.85178,21266
8.8575,20229
8.86323,22099
8.86895,20792
8.87467,21753
8.8804,20350
8.88612,22170
8.89183,20434
8.89757,22965
8.90328,22142
8.909,21437
8.91473,21317
8.92045,21442
8.92617,21357
8.9319,22715
8.93762,21993
8.94333,24312
8.94907,23043
8.95478,23249
8.9605,28341
8.96623,43904
8.97195,84099
8.97767,151305
8.98338,210604
8.98912,234751
8.99483,191883
9.00055,119950
9.00628,59418
9.012,33201
9.01772,25141
9.02345,21755
9.02917,21020
9.03488,21507
9.04062,21679
9.04633,21753
9.05205,21401
9.05778,21908
9.0635,23266
9.06922,21472
9.07495,22140
9.08067,22358
9.08638,21226
9.09212,22440
9.09783,21146
9.10355,20766
9.10927,22250
9.115,20422
9.12072,22341
9.12643,21871
9.13217,21975
9.13788,25858
9.1436,25312
9.14933,26603
9.15505,26936
9.16077,27111
9.1665,24647
9.17222,24843
9.17793,24556
9.18367,23506
9.18938,23764
9.1951,23225
9.20083,24223
9.20655,22707
9.21227,22219
9.218,20907
9.22372,23202
9.22943,23150
9.23515,22760
9.24088,22093
9.2466,23039
9.25232,22877
9.25805,21705
9.26377,21921
9.26948,22171
9.27522,22146
9.28093,21308
9.28665,21004
9.29238,22717
9.2981,21483
9.30382,21511
9.30955,20902
9.31527,21737
9.32098,21651
9.32672,22384
9.33243,22532
9.33815,22669
9.34388,20232
9.3496,23665
9.35532,21491
9.36103,21899
9.36677,21143
9.37248,22563
9.3782,22681
9.38393,22507
9.38965,21299
9.39537,22620
9.4011,22840
9.40682,21715
9.41253,22965
9.41827,22924
9.42398,22003
9.4297,22841
9.43543,22803
9.44115,24316
9.44687,22293
9.4526,22914
9.45832,23291
9.46403,22428
9.46977,23292
9.47548,22285
9.4812,23460
9.48692,22514
9.49265,23899
9.49837,22455
9.50408,22238
9.50982,22338
9.51553,24130
9.52125,26481
9.52698,26311
9.5327,25675
9.53842,26748
9.54415,26336
9.54987,25996
9.55558,26735
9.56132,27032
9.56703,26575
9.57275,25929
9.57848,25450
9.5842,25494
9.58992,25828
9.59565,27074
9.60137,24464
9.60708,23301
9.6128,23845
9.61853,25090
9.62425,24782
9.62997,25107
9.6357,26317
9.64142,25740
9.64713,26600
9.65287,25221
9.65858,25757
9.6643,27049
9.67003,27538
9.67575,28674
9.68147,33248
9.6872,46101
9.69292,69868
9.69863,84900
9.70437,90163
9.71008,88059
9.7158,81651
9.72153,76794
9.72725,74048
9.73297,75818
9.73868,70249
9.74442,63420
9.75013,59043
9.75585,56023
9.76158,52976
9.7673,46078
9.77302,46374
9.77875,41545
9.78447,40859
9.79018,39761
9.79592,40341
9.80163,38468
9.80735,37912
9.81308,38219
9.8188,33978
9.82452,36456
9.83025,34603
9.83597,33014
9.84168,31331
9.84742,31139
9.85313,33442
9.85885,31419
9.86457,31390
9.8703,30764
9.87602,29727
9.88173,31588
9.88747,31443
9.89318,30663
9.8989,29753
9.90463,31533
9.91035,29414
9.91607,30403
9.9218,28770
9.92752,29627
9.93323,31931
9.93897,27654
9.94468,28199
9.9504,29123
9.95613,28116
9.96185,29509
9.96757,28023
9.9733,30368
9.97902,29902
9.98473,30896
9.99045,28216
9.99618,29986
10.0019,30522
10.0076,29572
10.0134,29516
10.0191,29373
10.0248,28041
10.0305,31007
10.0362,28953
10.042,28218
10.0477,29414
10.0534,27385
10.0591,30304
10.0649,27137
10.0706,29013
10.0763,28224
10.082,26935
10.0877,28101
10.0935,27884
10.0992,26987
10.1049,28472
10.1106,29685
10.1163,28646
10.1221,27772
10.1278,28061
10.1335,29211
10.1392,29025
10.145,27100
10.1507,29337
10.1564,29012
10.1621,29115
10.1678,29390
10.1736,27196
10.1793,29515
10.185,27344
10.1907,29514
10.1965,29347
10.2022,28619
10.2079,27704
10.2136,27727
10.2193,27590
10.2251,29702
10.2308,33705
10.2365,48830
10.2422,84237
10.248,136269
10.2537,188454
10.2594,187700
10.2651,146533
10.2708,93494
10.2766,56986
10.2823,35293
10.288,29248
10.2937,29094
10.2995,27052
10.3052,27706
10.3109,28085
10.3166,27374
10.3223,27341
10.3281,28874
10.3338,26104
10.3395,27400
10.3452,28403
10.351,27772
10.3567,28323
10.3624,28185
10.3681,25646
10.3738,28034
10.3796,26198
10.3853,27094
10.391,28658
10.3967,26698
10.4024,27238
10.4082,26037
10.4139,27879
10.4196,26976
10.4253,27452
10.4311,27034
10.4368,27404
10.4425,26148
10.4482,27846
10.4539,26710
10.4597,25989
10.4654,28481
10.4711,26384
10.4768,29260
10.4826,28519
10.4883,29010
10.494,26815
10.4997,28049
10.5054,28108
10.5112,27526
10.5169,26263
10.5226,25418
10.5283,28185
10.5341,26908
10.5398,27166
10.5455,25918
10.5512,27151
10.5569,27122
10.5627,24444
10.5684,26626
10.5741,27489
10.5798,26168
10.5856,27594
10.5913,27846
10.597,29848
10.6027,29498
10.6084,34830
10.6142,32678
10.6199,29326
10.6256,30083
10.6313,30078
10.637,28932
10.6428,29682
10.6485,27363
10.6542,28784
10.6599,27572
10.6657,29663
10.6714,28110
10.6771,28911
10.6828,29026
10.6885,28290
10.6943,29585
10.7,31175
10.7057,29951
10.7114,30858
10.7172,28475
10.7229,29122
10.7286,29087
10.7343,28280
10.74,28232
10.7458,28943
10.7515,27037
10.7572,28018
10.7629,28325
10.7687,27925
10.7744,28056
10.7801,29546
10.7858,28165
10.7915,28140
10.7973,28969
10.803,28033
10.8087,28031
10.8144,28438
10.8202,29077
10.8259,29120
10.8316,29485
10.8373,27255
10.843,30295
10.8488,28864
10.8545,28745
10.8602,29452
10.8659,29756
10.8716,27887
10.8774,28271
10.8831,29335
10.8888,30177
10.8945,29334
10.9003,27881
10.906,28662
10.9117,28742
10.9174,29172
10.9231,28316
10.9289,31814
10.9346,29013
10.9403,31849
10.946,30115
10.9518,30956
10.9575,29303
10.9632,31477
10.9689,31410
10.9746,32028
10.9804,34217
10.9861,34465
10.9918,34928
10.9975,35125
11.0033,35280
11.009,37289
11.0147,40396
11.0204,39525
11.0261,41658
11.0319,45167
11.0376,49183
11.0433,57249
11.049,69860
11.0548,81572
11.0605,89737
11.0662,100534
11.0719,112848
11.0776,115483
11.0834,119297
11.0891,117573
11.0948,114430
11.1005,111027
11.1063,105097
11.112,103080
11.1177,97886
11.1234,88389
11.1291,87501
11.1349,80300
11.1406,79669
11.1463,71516
11.152,71616
11.1577,67783
11.1635,64092
11.1692,63967
11.1749,61291
11.1806,58627
11.1864,56507
11.1921,54170
11.1978,55271
11.2035,55092
11.2092,52764
11.215,51815
11.2207,52005
11.2264,53763
11.2321,55659
11.2379,59593
11.2436,62569
11.2493,62029
11.255,62569
11.2607,62439
11.2665,62883
11.2722,61640
11.2779,59806
11.2836,57272
11.2894,55621
11.2951,52799
11.3008,51207
11.3065,50746
11.3122,49181
11.318,46817
11.3237,45731
11.3294,45016
11.3351,45290
11.3409,42685
11.3466,43409
11.3523,44098
11.358,43036
11.3637,42023
11.3695,40957
11.3752,42176
11.3809,39082
11.3866,42195
11.3923,43977
11.3981,42843
11.4038,52769
11.4095,74130
11.4152,108728
11.421,149634
11.4267,172844
11.4324,167466
11.4381,129938
11.4438,87252
11.4496,56371
11.4553,42292
11.461,39914
11.4667,38613
11.4725,39150
11.4782,36464
11.4839,40307
11.4896,39758
11.4953,41731
11.5011,39364
11.5068,39014
11.5125,35849
11.5182,38137
11.524,38053
11.5297,37014
11.5354,35804
11.5411,37121
11.5468,38997
11.5526,37142
11.5583,34958
11.564,36635
11.5697,35940
11.5755,36637
11.5812,36969
11.5869,36542
11.5926,35801
11.5983,36136
11.6041,36229
11.6098,36401
11.6155,36779
11.6212,36393
11.6269,37481
11.6327,36316
11.6384,38404
11.6441,36589
11.6498,37467
11.6556,35988
11.6613,34896
11.667,39046
11.6727,35956
11.6784,36621
11.6842,36305
11.6899,37636
11.6956,36518
11.7013,35441
11.7071,36943
11.7128,37788
11.7185,34704
11.7242,37792
11.7299,34728
11.7357,35179
11.7414,38886
11.7471,34590
11.7528,35358
11.7586,34353
11.7643,37143
11.77,35993
11.7757,35584
11.7814,38735
11.7872,37924
11.7929,37405
11.7986,37433
11.8043,40149
11.8101,40912
11.8158,39348
11.8215,38390
11.8272,36726
11.8329,38384
11.8387,37867
11.8444,36394
11.8501,37915
11.8558,39014
11.8616,37274
11.8673,40064
11.873,40074
11.8787,43450
11.8844,42516
11.8902,40006
11.8959,40327
11.9016,36201
11.9073,38930
11.913,38012
11.9188,38324
11.9245,40250
11.9302,38062
11.9359,39013
11.9417,38080
11.9474,34874
11.9531,36189
11.9588,36848
11.9645,36342
11.9703,37637
11.976,36308
11.9817,37538
11.9874,36811
11.9932,40199
11.9989,36972
12.0046,37564
12.0103,39495
12.016,36619
12.0218,36992
12.0275,35787
12.0332,36959
12.0389,39973
12.0447,38078
12.0504,38168
12.0561,38742
12.0618,38210
12.0675,41355
12.0733,40583
12.079,42080
12.0847,41910
12.0904,42315
12.0962,39883
12.1019,39939
12.1076,39621
12.1133,39291
12.119,38666
12.1248,39151
12.1305,38165
12.1362,39114
12.1419,40067
12.1476,40298
12.1534,40681
12.1591,37499
12.1648,36256
12.1705,38424
12.1763,40532
12.182,38733
12.1877,38730
12.1934,39304
12.1991,38967
12.2049,38120
12.2106,40923
12.2163,39930
12.222,38946
12.2278,38118
12.2335,38267
12.2392,41216
12.2449,38061
12.2506,42255
12.2564,40941
12.2621,40892
12.2678,40623
12.2735,40696
12.2793,39768
12.285,40903
12.2907,37844
12.2964,39964
12.3021,41091
12.3079,40048
12.3136,39592
12.3193,41255
12.325,40871
12.3308,39640
12.3365,39353
12.3422,39543
12.3479,39218
12.3536,40051
12.3594,39548
12.3651,39805
12.3708,42844
12.3765,40835
12.3823,43055
12.388,39956
12.3937,41679
12.3994,43016
12.4051,41897
12.4109,40808
12.4166,41893
12.4223,42814
12.428,45596
12.4337,42376
12.4395,41761
12.4452,41813
12.4509,43899
12.4566,44022
12.4624,43294
12.4681,51245
12.4738,67306
12.4795,100400
12.4852,142544
12.491,186992
12.4967,191565
12.5024,160399
12.5081,116732
12.5139,82920
12.5196,61204
12.5253,52388
12.531,51189
12.5367,50295
12.5425,50047
12.5482,50599
12.5539,48225
12.5596,47969
12.5654,49886
12.5711,48910
12.5768,48571
12.5825,47632
12.5882,47067
12.594,47424
12.5997,49204
12.6054,47124
12.6111,44992
12.6169,45140
12.6226,44649
12.6283,45818
12.634,47013
12.6397,45497
12.6455,47524
12.6512,47089
12.6569,45479
12.6626,46923
12.6683,48063
12.6741,45695
12.6798,47458
12.6855,47040
12.6912,49358
12.697,48931
12.7027,46406
12.7084,49617
12.7141,47128
12.7198,48027
12.7256,48560
12.7313,46328
12.737,48888
12.7427,48997
12.7485,49264
12.7542,46771
12.7599,47808
12.7656,51175
12.7713,49496
12.7771,51114
12.7828,49328
12.7885,49821
12.7942,48773
12.8,49683
12.8057,48904
12.8114,50455
12.8171,52529
12.8228,51682
12.8286,51830
12.8343,46902
12.84,48582
12.8457,47889
12.8515,52525
12.8572,48603
12.8629,50685
12.8686,47958
12.8743,51189
12.8801,50457
12.8858,51045
12.8915,48854
12.8972,48858
12.9029,47546
12.9087,48255
12.9144,48438
12.9201,48374
12.9258,47665
12.9316,47566
12.9373,48048
12.943,50340
12.9487,48508
12.9544,45707
12.9602,48725
12.9659,45751
12.9716,46339
12.9773,46930
12.9831,45519
12.9888,48173
12.9945,47089
13.0002,46445
13.0059,47265
13.0117,47958
13.0174,46358
13.0231,48284
13.0288,46262
13.0346,50329
13.0403,46234
13.046,47241
13.0517,47691
13.0574,49796
13.0632,45659
13.0689,46090
13.0746,48472
13.0803,47464
13.0861,49808
13.0918,49847
13.0975,48402
13.1032,50336
13.1089,47974
13.1147,49678
13.1204,48497
13.1261,49027
13.1318,50001
13.1376,48904
13.1433,48670
13.149,53569
13.1547,54242
13.1604,55744
13.1662,57338
13.1719,63891
13.1776,60009
13.1833,58743
13.189,58167
13.1948,53562
13.2005,53683
13.2062,53968
13.2119,56126
13.2177,54559
13.2234,54783
13.2291,57408
13.2348,55370
13.2405,55501
13.2463,57606
13.252,54940
13.2577,55323
13.2634,55587
13.2692,55759
13.2749,57433
13.2806,55652
13.2863,55490
13.292,55125
13.2978,60044
13.3035,60185
13.3092,60689
13.3149,60565
13.3207,58567
13.3264,62093
13.3321,61156
13.3378,63571
13.3435,63871
13.3493,64437
13.355,63541
13.3607,63797
13.3664,64730
13.3722,62724
13.3779,62000
13.3836,68671
13.3893,65104
13.395,64296
13.4008,67719
13.4065,64751
13.4122,66655
13.4179,68103
13.4236,66221
13.4294,68165
13.4351,65942
13.4408,65560
13.4465,64383
13.4523,69972
13.458,77139
13.4637,93327
13.4694,129683
13.4751,173765
13.4809,211892
13.4866,218639
13.4923,185776
13.498,145238
13.5038,107258
13.5095,86147
13.5152,78907
13.5209,74229
13.5266,76032
13.5324,74152
13.5381,71542
13.5438,73398
13.5495,71876
13.5553,71046
13.561,71057
13.5667,68669
13.5724,72542
13.5781,68684
13.5839,70148
13.5896,69531
13.5953,67883
13.601,67794
13.6068,67748
13.6125,70483
13.6182,71845
13.6239,68605
13.6296,67139
13.6354,70487
13.6411,69090
13.6468,68163
13.6525,69854
13.6582,69649
13.664,67123
13.6697,67580
13.6754,69532
13.6811,71212
13.6869,71296
13.6926,70971
13.6983,69874
13.704,70421
13.7097,69321
13.7155,70148
13.7212,71540
13.7269,69649
13.7326,70576
13.7384,68784
13.7441,75025
13.7498,77396
13.7555,79916
13.7612,87690
13.767,91364
13.7727,88452
13.7784,84003
13.7841,79261
13.7899,76652
13.7956,77448
13.8013,76961
13.807,75440
13.8127,74828
13.8185,74231
13.8242,75074
13.8299,75933
13.8356,76248
13.8414,77242
13.8471,79689
13.8528,87213
13.8585,94268
13.8642,97169
13.87,97741
13.8757,93628
13.8814,91977
13.8871,89622
13.8929,87260
13.8986,85941
13.9043,84551
13.91,81275
13.9157,79623
13.9215,78927
13.9272,78649
13.9329,80752
13.9386,78326
13.9443,83959
13.9501,83339
13.9558,83338
13.9615,90602
13.9672,92507
13.973,92415
13.9787,89684
13.9844,86116
13.9901,83834
13.9958,83294
14.0016,84977
14.0073,85138
14.013,83239
14.0187,84079
14.0245,82781
14.0302,84093
14.0359,84780
14.0416,87859
14.0473,83234
14.0531,83367
14.0588,83757
14.0645,82416
14.0702,86974
14.076,82525
14.0817,83624
14.0874,85786
14.0931,86536
14.0988,90890
14.1046,88516
14.1103,89784
14.116,84357
14.1217,90082
14.1275,86152
14.1332,87855
14.1389,88511
14.1446,91818
14.1503,88967
14.1561,93522
14.1618,88737
14.1675,89701
14.1732,89337
14.1789,88665
14.1847,91983
14.1904,91479
14.1961,90638
14.2018,90436
14.2076,88921
14.2133,88822
14.219,91690
14.2247,90477
14.2304,89514
14.2362,89088
14.2419,91101
14.2476,91039
14.2533,93256
14.2591,92919
14.2648,92091
14.2705,95162
14.2762,91142
14.2819,96048
14.2877,94406
14.2934,93637
14.2991,93940
14.3048,92935
14.3106,94348
14.3163,97021
14.322,92706
14.3277,92924
14.3334,97274
14.3392,97729
14.3449,94266
14.3506,98702
14.3563,95819
14.3621,100676
14.3678,95713
14.3735,98649
14.3792,102091
14.3849,105672
14.3907,117862
14.3964,145571
14.4021,185824
14.4078,235041
14.4135,260517
14.4193,247286
14.425,214598
14.4307,171572
14.4364,135361
14.4422,121618
14.4479,112766
14.4536,111753
14.4593,112392
14.465,110133
14.4708,107312
14.4765,105971
14.4822,108190
14.4879,113956
14.4937,110350
14.4994,108657
14.5051,112828
14.5108,109378
14.5165,114733
14.5223,115398
14.528,112610
14.5337,112945
14.5394,113740
14.5452,111121
14.5509,110978
14.5566,115204
14.5623,110287
14.568,115606
14.5738,111136
14.5795,116038
14.5852,117575
14.5909,117140
14.5967,117592
14.6024,116417
14.6081,116940
14.6138,116456
14.6195,114146
14.6253,114994
14.631,117575
14.6367,119489
14.6424,116727
14.6482,116244
14.6539,119136
14.6596,119537
14.6653,116917
14.671,115212
14.6768,120637
14.6825,120014
14.6882,122751
14.6939,117790
14.6996,120879
14.7054,118406
14.7111,117430
14.7168,118476
14.7225,121254
14.7283,120272
14.734,116865
14.7397,119447
14.7454,121264
14.7511,124538
14.7569,122546
14.7626,123142
14.7683,124899
14.774,125178
14.7798,121380
14.7855,123548
14.7912,124664
14.7969,123488
14.8026,124368
14.8084,123246
14.8141,125184
14.8198,124154
14.8255,124210
14.8313,126351
14.837,127422
14.8427,126386
14.8484,126416
14.8541,127574
14.8599,130514
14.8656,124676
14.8713,126911
14.877,128756
14.8828,132437
14.8885,131997
14.8942,132675
14.8999,129847
14.9056,133521
14.9114,131710
14.9171,128552
14.9228,131211
14.9285,132013
14.9342,126557
14.94,136058
14.9457,134497
14.9514,136712
14.9571,134055
14.9629,135309
14.9686,135966
14.9743,137686
14.98,136519
14.9857,142240
14.9915,139469
14.9972,140165
15.0029,143537
15.0086,142757
15.0144,143718
15.0201,142919
15.0258,142667
15.0315,142385
15.0372,144602
15.043,144389
15.0487,143610
15.0544,143938
15.0601,144714
15.0659,146108
15.0716,146151
15.0773,147619
15.083,145777
15.0887,146563
15.0945,145229
15.1002,148829
15.1059,148135
15.1116,149255
15.1174,148586
15.1231,149966
15.1288,151449
15.1345,151808
15.1402,151084
15.146,153053
15.1517,155352
15.1574,152286
15.1631,151084
15.1688,153558
15.1746,155877
15.1803,156491
15.186,156464
15.1917,160928
15.1975,158417
15.2032,160447
15.2089,154615
15.2146,163834
15.2203,158612
15.2261,160491
15.2318,164497
15.2375,159510
15.2432,167089
15.249,165094
15.2547,163492
15.2604,173942
15.2661,194456
15.2718,230546
15.2776,280424
15.2833,332681
15.289,340434
15.2947,313050
15.3005,266590
15.3062,227697
15.3119,198601
15.3176,187473
15.3233,184395
15.3291,187156
15.3348,184988
15.3405,179572
15.3462,181203
15.352,185198
15.3577,186389
15.3634,186461
15.3691,187945
15.3748,187661
15.3806,190171
15.3863,191254
15.392,192619
15.3977,187740
15.4035,190106
15.4092,188071
15.4149,188343
15.4206,195162
15.4263,192888
15.4321,194973
15.4378,195328
15.4435,193285
15.4492,196491
15.4549,203117
15.4607,198865
15.4664,200679
15.4721,201224
15.4778,198742
15.4836,200980
15.4893,201564
15.495,199619
15.5007,198880
15.5064,202239
15.5122,203304
15.5179,203199
15.5236,209436
15.5293,201877
15.5351,201929
15.5408,205374
15.5465,207385
15.5522,209442
15.5579,207936
15.5637,207799
15.5694,213187
15.5751,212541
15.5808,207743
15.5866,213836
15.5923,210509
15.598,207962
15.6037,214545
15.6094,213120
15.6152,216630
15.6209,217910
15.6266,217436
15.6323,216204
15.6381,216232
15.6438,216111
15.6495,218456
15.6552,218685
15.6609,221887
15.6667,224065
15.6724,219458
15.6781,226944
15.6838,221900
15.6895,222023
15.6953,220299
15.701,231794
15.7067,227254
15.7124,228269
15.7182,233652
15.7239,234791
15.7296,229804
15.7353,233311
15.741,233804
15.7468,233687
15.7525,233640
15.7582,234826
15.7639,240044
15.7697,240771
15.7754,236388
15.7811,241977
15.7868,238525
15.7925,244389
15.7983,244861
15.804,247218
15.8097,246777
15.8154,246901
15.8212,245777
15.8269,247633
15.8326,252398
15.8383,248894
15.844,251444
15.8498,253335
15.8555,252094
15.8612,255476
15.8669,257930
15.8727,259054
15.8784,259750
15.8841,263438
15.8898,256449
15.8955,259615
15.9013,261715
15.907,266871
15.9127,268783
15.9184,267714
15.9241,260813
15.9299,267513
15.9356,264402
15.9413,270198
15.947,269474
15.9528,261524
15.9585,265846
15.9642,269552
15.9699,273850
15.9756,273667
15.9814,269240
15.9871,264193
15.9928,269296
15.9985,275910
16.0042,270469
16.01,271129
16.0157,267120
16.0214,277678
16.0271,271200
16.0329,275455
16.0386,276350
16.0443,273478
16.05,274480
16.0558,273999
16.0615,278652
16.0672,275856
16.0729,282430
16.0786,298613
16.0844,322386
16.0901,363723
16.0958,410478
16.1015,444820
16.1073,450218
16.113,414323
16.1187,363461
16.1244,335682
16.1301,312688
16.1359,297214
16.1416,305341
16.1473,298802
16.153,298467
16.1588,301609
16.1645,298704
16.1702,302972
16.1759,302657
16.1816,308350
16.1873,307341
16.1931,308191
16.1988,310708
16.2045,305915
16.2102,297898
16.216,306475
16.2217,311496
16.2274,311623
16.2331,310776
16.2388,312790
16.2446,315888
16.2503,316153
16.256,317145
16.2617,319859
16.2675,318497
16.2732,315806
16.2789,313445
16.2846,324272
16.2904,318893
16.2961,322034
16.3018,320150
16.3075,323918
16.3132,330977
16.319,322243
16.3247,329854
16.3304,325070
16.3361,327864
16.3419,330831
16.3476,331772
16.3533,327859
16.359,330835
16.3647,333238
16.3705,338959
16.3762,341089
16.3819,347129
16.3876,334362
16.3934,342268
16.3991,342634
16.4048,340835
16.4105,342737
16.4162,347235
16.4219,353865
16.4277,351696
16.4334,348769
16.4391,352293
16.4448,350742
16.4506,354099
16.4563,354539
16.462,358385
16.4677,362456
16.4735,366621
16.4792,359448
16.4849,366874
16.4906,369423
16.4963,375371
16.5021,375366
16.5078,376465
16.5135,375492
16.5192,371345
16.525,373888
16.5307,370697
16.5364,375463
16.5421,377349
16.5478,372188
16.5536,379023
16.5593,384980
16.565,382772
16.5707,379527
16.5765,379754
16.5822,383525
16.5879,385201
16.5936,381145
16.5993,387018
16.605,392355
16.6108,396225
16.6165,393413
16.6222,393935
16.6279,398152
16.6337,395494
16.6394,399004
16.6451,395396
16.6508,398187
16.6565,401483
16.6623,402793
16.668,407484
16.6737,396783
16.6794,407119
16.6852,404807
16.6909,414556
16.6966,411643
16.7023,414079
16.7081,414696
16.7138,419065
16.7195,419555
16.7252,420702
16.7309,417443
16.7367,423014
16.7424,425452
16.7481,424616
16.7538,428931
16.7596,430281
16.7653,435346
16.771,433939
16.7767,437088
16.7824,442342
16.7882,439563
16.7939,445023
16.7996,451467
16.8053,450052
16.8111,444390
16.8168,452950
16.8225,451947
16.8282,461137
16.8339,463164
16.8396,469744
16.8454,497528
16.8511,533674
16.8568,570972
16.8625,605207
16.8683,604584
16.874,578625
16.8797,549823
16.8854,510359
16.8912,499238
16.8969,488529
16.9026,487874
16.9083,488390
16.9141,498964
16.9198,491366
16.9255,489370
16.9312,495251
16.9369,492767
16.9427,501303
16.9484,504912
16.9541,508958
16.9598,515575
16.9655,515675
16.9713,512844
16.977,516999
16.9827,533288
16.9884,523703
16.9942,524838
16.9999,520075
17.0056,534227
17.0113,526944
17.017,531224
17.0228,532121
17.0285,540380
17.0342,536949
17.0399,542684
17.0456,542595
17.0514,545602
17.0571,542623
17.0628,547322
17.0685,548480
17.0742,553158
17.08,556285
17.0857,550809
17.0914,555605
17.0971,559415
17.1029,560128
17.1086,564205
17.1143,559676
17.12,555843
17.1258,561002
17.1315,563902
17.1372,562097
17.1429,559673
17.1487,560396
17.1544,556773
17.1601,566962
17.1658,569985
17.1715,568497
17.1773,569398
17.183,568260
17.1887,570049
17.1944,558960
17.2001,570485
17.2059,572417
17.2116,578263
17.2173,575023
17.223,578919
17.2288,581619
17.2345,580564
17.2402,583517
17.2459,574627
17.2516,584135
17.2574,579564
17.2631,586456
17.2688,574519
17.2745,588352
17.2802,591122
17.286,598580
17.2917,587694
17.2974,588918
17.3031,584757
17.3089,583567
17.3146,592735
17.3203,592826
17.326,596967
17.3318,592057
17.3375,602705
17.3432,594912
17.3489,599224
17.3546,600390
17.3604,606366
17.3661,614442
17.3718,616830
17.3775,617486
17.3833,616864
17.389,615640
17.3947,618500
17.4004,612703
17.4061,631273
17.4119,623814
17.4176,629070
17.4233,637611
17.429,632774
17.4348,638928
17.4405,644627
17.4462,638698
17.4519,644507
17.4576,637849
17.4633,643244
17.4691,639454
17.4748,640600
17.4805,649972
17.4862,654374
17.492,657411
17.4977,662095
17.5034,649233
17.5091,654802
17.5148,658857
17.5206,657228
17.5263,658734
17.532,661640
17.5377,658434
17.5435,665330
17.5492,667917
17.5549,686145
17.5606,709903
17.5664,742528
17.5721,768498
17.5778,784187
17.5835,769424
17.5892,743749
17.595,715551
17.6007,692449
17.6064,685941
17.6121,678843
17.6179,679741
17.6236,680262
17.6293,676407
17.635,680114
17.6407,677305
17.6465,670380
17.6522,672197
17.6579,676105
17.6636,675540
17.6694,662589
17.6751,672857
17.6808,673437
17.6865,667641
17.6922,670378
17.698,667307
17.7037,668126
17.7094,678305
17.7151,670232
17.7208,678324
17.7266,675076
17.7323,664181
17.738,669842
17.7437,673986
17.7495,677286
17.7552,665640
17.7609,668404
17.7666,671702
17.7723,673110
17.7781,669098
17.7838,669351
17.7895,674273
17.7952,676134
17.801,675432
17.8067,671662
17.8124,672101
17.8181,670287
17.8238,679474
17.8296,675051
17.8353,673294
17.841,675198
17.8467,669835
17.8525,665240
17.8582,672915
17.8639,679554
17.8696,672278
17.8753,677714
17.8811,683030
17.8868,675620
17.8925,675763
17.8982,673736
17.904,681562
17.9097,682993
17.9154,688539
17.9211,691503
17.9268,698586
17.9325,695910
17.9383,690282
17.944,695677
17.9497,700286
17.9554,699876
17.9612,711433
17.9669,701505
17.9726,693721
17.9783,700520
17.9841,696289
17.9898,702115
17.9955,709517
18.0012,694484
18.0069,706588
18.0127,701281
18.0184,703894
18.0241,701825
18.0298,704682
18.0356,706446
18.0413,700837
18.047,699460
18.0527,714480
18.0584,702210
18.0642,700640
18.0699,710531
18.0756,708493
18.0813,707448
18.0871,714354
18.0928,708112
18.0985,710771
18.1042,714918
18.1099,716201
18.1157,707361
18.1214,713390
18.1271,707304
18.1328,715410
18.1386,707784
18.1443,717562
18.15,714507
18.1557,718484
18.1614,720037
18.1671,713066
18.1729,718090
18.1786,712594
18.1843,716449
18.19,724095
18.1958,718593
18.2015,717110
18.2072,722892
18.2129,711969
18.2187,717459
18.2244,704948
18.2301,726069
18.2358,715720
18.2415,716943
18.2473,709558
18.253,717110
18.2587,705944
18.2644,712256
18.2702,713436
18.2759,707155
18.2816,714984
18.2873,718174
18.293,725693
18.2988,740380
18.3045,750150
18.3102,767176
18.3159,774175
18.3217,772920
18.3274,774314
18.3331,751110
18.3388,746728
18.3445,737236
18.3503,728286
18.356,713583
18.3617,719234
18.3674,715378
18.3732,717849
18.3789,718617
18.3846,710988
18.3903,713274
18.396,709104
18.4018,704235
18.4075,708020
18.4132,710225
18.4189,703930
18.4247,707277
18.4304,704043
18.4361,693503
18.4418,705520
18.4475,703763
18.4533,699833
18.459,701377
18.4647,697506
18.4704,703160
18.4761,702786
18.4819,708643
18.4876,708988
18.4933,704986
18.499,705886
18.5048,706248
18.5105,705412
18.5162,700744
18.5219,694230
18.5276,692523
18.5334,692733
18.5391,696435
18.5448,690528
18.5505,696721
18.5563,698629
18.562,694132
18.5677,705143
18.5734,701499
18.5791,708915
18.5848,696767
18.5906,707700
18.5963,701511
18.602,691606
18.6077,697762
18.6135,708517
18.6192,697775
18.6249,699172
18.6306,693562
18.6364,702854
18.6421,705532
18.6478,707919
18.6535,707086
18.6593,709600
18.665,710219
18.6707,712107
18.6764,709808
18.6821,715102
18.6879,706445
18.6936,702036
18.6993,713655
18.705,709456
18.7107,721216
18.7165,724114
18.7222,716039
18.7279,721449
18.7336,719130
18.7394,708391
18.7451,722086
18.7508,715069
18.7565,720351
18.7622,727946
18.768,728723
18.7737,735885
18.7794,727919
18.7851,731917
18.7909,742510
18.7966,733191
18.8023,737471
18.808,744783
18.8137,747824
18.8195,754316
18.8252,755858
18.8309,755602
18.8366,765201
18.8424,769331
18.8481,771612
18.8538,785102
18.8595,781335
18.8652,781271
18.871,786795
18.8767,787750
18.8824,781187
18.8881,789921
18.8939,789313
18.8996,796349
18.9053,804753
18.911,795997
18.9167,804057
18.9225,798246
18.9282,809546
18.9339,822101
18.9396,815990
18.9454,826924
18.9511,835807
18.9568,832741
18.9625,836346
18.9682,845448
18.974,849889
18.9797,852710
18.9854,847784
18.9911,852174
18.9968,861321
19.0026,862858
19.0083,854731
19.014,870214
19.0197,866194
19.0254,872260
19.0312,872990
19.0369,877398
19.0426,876763
19.0483,875436
19.0541,871846
19.0598,878891
19.0655,882627
19.0712,883215
19.077,892197
19.0827,878852
19.0884,879342
19.0941,879703
19.0998,883538
19.1056,881757
19.1113,888251
19.117,895869
19.1227,882929
19.1285,895930
19.1342,907346
19.1399,901531
19.1456,906370
19.1513,905597
19.1571,908819
19.1628,919401
19.1685,909269
19.1742,906392
19.18,915787
19.1857,908557
19.1914,882990
19.1971,878260
19.2028,886040
19.2086,863140
19.2143,867038
19.22,875748
19.2257,865642
19.2314,870781
19.2372,860546
19.2429,858321
19.2486,859871
19.2543,860613
19.2601,853860
19.2658,859009
19.2715,844038
19.2772,854963
19.2829,855582
19.2887,841830
19.2944,841312
19.3001,839856
19.3058,827671
19.3116,832656
19.3173,828263
19.323,830721
19.3287,826147
19.3344,821241
19.3402,831897
19.3459,830499
19.3516,836183
19.3573,819218
19.3631,820527
19.3688,817728
19.3745,821191
19.3802,822079
19.3859,819018
19.3917,830413
19.3974,820433
19.4031,827164
19.4088,821621
19.4146,814984
19.4203,822211
19.426,822372
19.4317,816111
19.4374,820560
19.4431,808789
19.4489,809799
19.4546,814530
19.4603,825306
19.466,827459
19.4718,818891
19.4775,815742
19.4832,819568
19.4889,820633
19.4947,808613
19.5004,812852
19.5061,805719
19.5118,816026
19.5175,824209
19.5233,813763
19.529,803255
19.5347,799338
19.5404,808041
19.5462,806427
19.5519,809912
19.5576,813147
19.5633,812541
19.569,805547
19.5748,795459
19.5805,795882
19.5862,796187
19.5919,803722
19.5977,798686
19.6034,806856
19.6091,794826
19.6148,800678
19.6205,801077
19.6263,795306
19.632,802030
19.6377,792211
19.6434,798662
19.6492,795708
19.6549,797691
19.6606,796172
19.6663,799356
19.672,798688
19.6778,802095
19.6835,775702
19.6892,794297
19.6949,795710
19.7007,787008
19.7064,787043
19.7121,779391
19.7178,782250
19.7235,790809
19.7293,778093
19.735,789083
19.7407,777213
19.7464,777232
19.7521,771226
19.7579,772167
19.7636,774930
19.7693,771277
19.775,765534
19.7808,764264
19.7865,758207
19.7922,750707
19.7979,755402
19.8036,749373
19.8094,754095
19.8151,753181
19.8208,750804
19.8265,753544
19.8323,755241
19.838,762978
19.8437,760519
19.8494,759659
19.8551,752686
19.8608,754792
19.8666,752764
19.8723,751021
19.878,751632
19.8838,749721
19.8895,751363
19.8952,750392
19.9009,741683
19.9066,757028
19.9124,752762
19.9181,741337
19.9238,739179
19.9295,736047
19.9353,743696
19.941,744489
19.9467,747599
19.9524,745084
19.9581,747532
19.9639,737013
19.9696,739517
19.9753,738941
19.981,745393
19.9867,743203
19.9925,728349
19.9982,742790
20.0039,735225
20.0096,738555
20.0154,748704
20.0211,739602
20.0268,738399
20.0325,734441
20.0382,732829
20.044,729075
20.0497,724067
20.0554,730453
20.0611,730447
20.0669,735263
20.0726,737571
20.0783,730324
20.084,735192
20.0897,738421
20.0955,732024
20.1012,735888
20.1069,740380
20.1126,729970
20.1184,731345
20.1241,729980
20.1298,730680
20.1355,740677
20.1412,726573
20.147,722373
20.1527,738132
20.1584,735155
20.1641,735245
20.1699,729218
20.1756,728899
20.1813,728339
20.187,733255
20.1927,732952
20.1985,731230
20.2042,736499
20.2099,721587
20.2156,731248
20.2213,727478
20.2271,715239
20.2328,722203
20.2385,720852
20.2442,725203
20.25,725361
20.2557,726155
20.2614,727980
20.2671,731247
20.2728,733409
20.2786,736873
20.2843,720647
20.29,726060
20.2957,737918
20.3015,725336
20.3072,723230
20.3129,733748
20.3186,729962
20.3243,732716
20.3301,739699
20.3358,745604
20.3415,744062
20.3472,748397
20.353,733450
20.3587,734526
20.3644,740223
20.3701,746758
20.3758,750776
20.3816,749395
20.3873,752326
20.393,758106
20.3987,754497
20.4045,752337
20.4102,752325
20.4159,759448
20.4216,756942
20.4273,755484
20.4331,756442
20.4388,759551
20.4445,763306
20.4502,764071
20.456,768490
20.4617,761037
20.4674,766554
20.4731,766415
20.4788,770532
20.4846,769674
20.4903,767863
