C:\MSDCHEM\1\DATA\JAMES C\20180125 LACTONE WITH BME AND HYDROXYLAMINE\B 7hr.d 25 Jan 18  10:05 pm
Start of data points
3.09255,11059
3.09827,11005
3.10398,11539
3.1097,10496
3.11543,11222
3.12115,10993
3.12687,12573
3.1326,11123
3.13832,10530
3.14403,10897
3.14977,10442
3.15548,11013
3.1612,11647
3.16693,10657
3.17265,10895
3.17837,11392
3.1841,10700
3.18982,11056
3.19553,10570
3.20127,11330
3.20698,11749
3.2127,11119
3.21843,11049
3.22415,11066
3.22987,11124
3.23558,10559
3.24132,9895
3.24703,10489
3.25275,10045
3.25848,10269
3.2642,9916
3.26992,11032
3.27565,9439
3.28137,9546
3.28708,9772
3.29282,9786
3.29853,9152
3.30425,9069
3.30998,8780
3.3157,9419
3.32142,8815
3.32715,8829
3.33287,8617
3.33858,9195
3.34432,8607
3.35003,8995
3.35575,8975
3.36147,7653
3.3672,8649
3.37292,8826
3.37863,8595
3.38437,8662
3.39008,8529
3.3958,7292
3.40153,7452
3.40725,8164
3.41297,8030
3.4187,8422
3.42442,7705
3.43013,6461
3.43587,7495
3.44158,6839
3.4473,6488
3.45303,7436
3.45875,7808
3.46447,7791
3.4702,6429
3.47592,6810
3.48163,6729
3.48735,5873
3.49308,6375
3.4988,6754
3.50452,7458
3.51025,7249
3.51597,7051
3.52168,6444
3.52742,7103
3.53313,6917
3.53885,6554
3.54458,5186
3.5503,6118
3.55602,6501
3.56175,6436
3.56747,5749
3.57318,7085
3.57892,6258
3.58463,6342
3.59035,6168
3.59608,5185
3.6018,6181
3.60752,6215
3.61323,6391
3.61897,6026
3.62468,5898
3.6304,5857
3.63613,5973
3.64185,5069
3.64757,5408
3.6533,5943
3.65902,5813
3.66473,5653
3.67047,5844
3.67618,5161
3.6819,5392
3.68763,5165
3.69335,5600
3.69907,5882
3.7048,4786
3.71052,4733
3.71623,5128
3.72197,4325
3.72768,4856
3.7334,5452
3.73912,5508
3.74485,5868
3.75057,5683
3.75628,4530
3.76202,5149
3.76773,4983
3.77345,5024
3.77918,5151
3.7849,5086
3.79062,4980
3.79635,4913
3.80207,4714
3.80778,4220
3.81352,4734
3.81923,4995
3.82495,4715
3.83068,4765
3.8364,4519
3.84212,3931
3.84785,4291
3.85357,4913
3.85928,4493
3.865,4547
3.87073,4245
3.87645,5018
3.88217,4099
3.8879,4289
3.89362,4943
3.89933,4783
3.90507,4105
3.91078,4649
3.9165,4971
3.92223,5535
3.92795,3623
3.93367,4099
3.9394,3975
3.94512,3771
3.95083,4198
3.95657,4700
3.96228,3895
3.968,4555
3.97373,4808
3.97945,3570
3.98517,3787
3.99088,4030
3.99662,3746
4.00233,4101
4.00805,3898
4.01378,4300
4.0195,3644
4.02522,3097
4.03095,3969
4.03667,4397
4.04238,3966
4.04812,4035
4.05383,4400
4.05955,4384
4.06528,3744
4.071,3375
4.07672,3279
4.08245,3653
4.08817,3336
4.09388,3636
4.09962,4662
4.10533,3675
4.11105,2908
4.11677,3872
4.1225,3210
4.12822,4193
4.13393,3619
4.13967,3305
4.14538,3865
4.1511,3046
4.15683,3667
4.16255,2921
4.16827,3964
4.174,4100
4.17972,3163
4.18543,2775
4.19117,3302
4.19688,3099
4.2026,3285
4.20833,2861
4.21405,3846
4.21977,3466
4.2255,3002
4.23122,4824
4.23693,3595
4.24265,3480
4.24838,2620
4.2541,3010
4.25982,2956
4.26555,3750
4.27127,2863
4.27698,3227
4.28272,3321
4.28843,2932
4.29415,2835
4.29988,2899
4.3056,3519
4.31132,2824
4.31705,3032
4.32277,3132
4.32848,2902
4.33422,2814
4.33993,3324
4.34565,3488
4.35138,2817
4.3571,2500
4.36282,3422
4.36855,3156
4.37427,3092
4.37998,3439
4.3857,4225
4.39143,2590
4.39715,3783
4.40287,3225
4.4086,3731
4.41432,2791
4.42003,3444
4.42577,3383
4.43148,2929
4.4372,3087
4.44293,2960
4.44865,3336
4.45437,3336
4.4601,3057
4.46582,3160
4.47153,2638
4.47727,2684
4.48298,2360
4.4887,3073
4.49443,2954
4.50015,3387
4.50587,2922
4.51158,4099
4.51732,3180
4.52303,3091
4.52875,3637
4.53448,3466
4.5402,3183
4.54592,3198
4.55165,3244
4.55737,3409
4.56308,2803
4.56882,2913
4.57453,3623
4.58025,2587
4.58598,3042
4.5917,3346
4.59742,3163
4.60315,2809
4.60887,2749
4.61458,2752
4.62032,2920
4.62603,2420
4.63175,3049
4.63747,2349
4.6432,3154
4.64892,2366
4.65463,2886
4.66037,2955
4.66608,2409
4.6718,2938
4.67753,2252
4.68325,2887
4.68897,2379
4.6947,2983
4.70042,3160
4.70613,3089
4.71187,2189
4.71758,2858
4.7233,2293
4.72903,2238
4.73475,3082
4.74047,2408
4.7462,2631
4.75192,2527
4.75763,2354
4.76335,2138
4.76908,2552
4.7748,2916
4.78052,2746
4.78625,2136
4.79197,2990
4.79768,2801
4.80342,2623
4.80913,2570
4.81485,2849
4.82058,3112
4.8263,3219
4.83202,2488
4.83775,3362
4.84347,2628
4.84918,2780
4.85492,3107
4.86063,2604
4.86635,1995
4.87208,2209
4.8778,2213
4.88352,2582
4.88923,2592
4.89497,2677
4.90068,2407
4.9064,2523
4.91213,2242
4.91785,2162
4.92357,2257
4.9293,2020
4.93502,2259
4.94073,2260
4.94647,2481
4.95218,1988
4.9579,2453
4.96363,2105
4.96935,2696
4.97507,3134
4.9808,2291
4.98652,2129
4.99223,2083
4.99797,1786
5.00368,2097
5.0094,1621
5.01512,2283
5.02085,956
5.02657,2825
5.03228,1663
5.03802,2073
5.04373,2858
5.04945,2160
5.05518,3175
5.0609,2703
5.06662,2192
5.07235,2041
5.07807,2252
5.08378,2482
5.08952,1827
5.09523,2335
5.10095,1889
5.10668,1626
5.1124,2211
5.11812,2255
5.12385,2079
5.12957,2588
5.13528,2273
5.141,1824
5.14673,2264
5.15245,2611
5.15817,2762
5.1639,2078
5.16962,1500
5.17533,1669
5.18107,1524
5.18678,2085
5.1925,1565
5.19823,1578
5.20395,1944
5.20967,2597
5.2154,1833
5.22112,2078
5.22683,1924
5.23257,2548
5.23828,3186
5.244,2082
5.24973,1377
5.25545,1727
5.26117,1439
5.26688,2485
5.27262,2035
5.27833,2095
5.28405,2032
5.28978,2124
5.2955,1399
5.30122,1675
5.30695,1751
5.31267,2493
5.31838,1741
5.32412,2032
5.32983,1983
5.33555,2364
5.34128,2027
5.347,1987
5.35272,2523
5.35845,2335
5.36417,1521
5.36988,2508
5.37562,1668
5.38133,3080
5.38705,2186
5.39277,2715
5.3985,2528
5.40422,1938
5.40993,2019
5.41567,2588
5.42138,3187
5.4271,3488
5.43283,3475
5.43855,4226
5.44427,3584
5.45,3972
5.45572,2850
5.46143,2881
5.46717,2364
5.47288,3106
5.4786,2325
5.48433,2852
5.49005,2692
5.49577,2172
5.5015,2558
5.50722,2768
5.51293,2350
5.51865,2336
5.52438,2159
5.5301,2417
5.53582,1937
5.54155,2673
5.54727,2130
5.55298,2402
5.55872,2223
5.56443,2516
5.57015,1724
5.57588,2567
5.5816,2032
5.58732,1714
5.59305,2098
5.59877,1862
5.60448,2543
5.61022,1889
5.61593,1798
5.62165,1517
5.62738,2434
5.6331,2139
5.63882,1894
5.64453,1869
5.65027,2371
5.65598,1953
5.6617,2821
5.66743,2365
5.67315,1835
5.67887,2530
5.6846,1595
5.69032,1427
5.69603,2012
5.70177,1566
5.70748,2120
5.7132,2301
5.71893,1931
5.72465,2231
5.73037,2181
5.7361,1684
5.74182,1902
5.74753,1986
5.75327,2312
5.75898,2357
5.7647,1591
5.77042,2042
5.77615,2054
5.78187,2294
5.78758,1955
5.79332,1553
5.79903,1000
5.80475,1423
5.81048,2221
5.8162,1823
5.82192,1989
5.82765,1683
5.83337,2185
5.83908,2105
5.84482,2222
5.85053,1679
5.85625,1804
5.86198,1945
5.8677,1945
5.87342,2684
5.87915,1547
5.88487,1672
5.89058,1852
5.8963,1927
5.90203,1435
5.90775,1938
5.91347,1825
5.9192,1747
5.92492,1922
5.93063,2018
5.93637,1543
5.94208,1631
5.9478,2141
5.95353,1548
5.95925,2146
5.96497,2292
5.9707,1782
5.97642,1108
5.98213,1502
5.98787,1725
5.99358,1980
5.9993,2087
6.00503,2151
6.01075,1966
6.01647,2103
6.02218,1751
6.02792,2324
6.03363,1848
6.03935,1443
6.04508,1443
6.0508,1725
6.05652,2014
6.06225,2095
6.06797,1326
6.07368,1838
6.07942,1724
6.08513,2502
6.09085,1903
6.09658,1733
6.1023,2010
6.10802,1671
6.11375,2426
6.11947,2214
6.12518,1877
6.13092,2371
6.13663,1966
6.14235,1309
6.14807,1671
6.1538,1814
6.15952,2009
6.16523,1521
6.17097,2223
6.17668,1358
6.1824,1745
6.18813,1463
6.19385,1614
6.19957,1266
6.2053,2147
6.21102,1885
6.21673,1399
6.22247,1805
6.22818,1649
6.2339,1444
6.23963,1732
6.24535,1579
6.25107,1448
6.2568,2079
6.26252,1768
6.26823,1692
6.27395,1725
6.27968,1931
6.2854,2151
6.29112,1917
6.29685,1642
6.30257,1854
6.30828,1608
6.31402,1058
6.31973,1805
6.32545,1977
6.33118,2014
6.3369,1883
6.34262,1031
6.34835,1470
6.35407,1492
6.35978,1917
6.36552,1053
6.37123,1889
6.37695,1117
6.38268,2304
6.3884,1405
6.39412,1714
6.39983,1463
6.40557,1840
6.41128,1869
6.417,1184
6.42273,1453
6.42845,1667
6.43417,1746
6.4399,1433
6.44562,1299
6.45133,1774
6.45707,1925
6.46278,1663
6.4685,1416
6.47423,1724
6.47995,1382
6.48567,2075
6.4914,1920
6.49712,1266
6.50283,1952
6.50857,1467
6.51428,1801
6.52,2006
6.52572,2191
6.53145,1715
6.53717,1418
6.54288,1148
6.54862,1808
6.55433,1612
6.56005,1756
6.56578,1500
6.5715,1948
6.57722,2079
6.58295,1771
6.58867,1505
6.59438,1494
6.60012,1102
6.60583,1649
6.61155,2122
6.61728,1509
6.623,1354
6.62872,1338
6.63445,1467
6.64017,1596
6.64588,1869
6.6516,1596
6.65733,1984
6.66305,1662
6.66877,1300
6.6745,1465
6.68022,2049
6.68593,1832
6.69167,1576
6.69738,1852
6.7031,1863
6.70883,2061
6.71455,2527
6.72027,1551
6.726,2300
6.73172,2304
6.73743,1839
6.74317,3090
6.74888,2115
6.7546,2333
6.76033,1862
6.76605,2642
6.77177,1595
6.77748,2289
6.78322,1940
6.78893,2158
6.79465,2470
6.80038,1764
6.8061,2001
6.81182,1756
6.81755,1941
6.82327,2238
6.82898,2225
6.83472,2109
6.84043,2048
6.84615,2030
6.85188,2277
6.8576,1197
6.86332,1223
6.86905,1578
6.87477,1807
6.88048,2099
6.88622,2074
6.89193,2353
6.89765,1525
6.90337,1659
6.9091,1524
6.91482,1525
6.92053,1580
6.92627,1968
6.93198,811
6.9377,1859
6.94343,1237
6.94915,1434
6.95487,1964
6.9606,1248
6.96632,1850
6.97203,1667
6.97777,1827
6.98348,1780
6.9892,2073
6.99493,2574
7.00065,1748
7.00637,1501
7.0121,1724
7.01782,1558
7.02353,1655
7.02925,1249
7.03498,1559
7.0407,2187
7.04642,1545
7.05215,1304
7.05787,1858
7.06358,1816
7.06932,2361
7.07503,1795
7.08075,1906
7.08648,2698
7.0922,3017
7.09792,3618
7.10365,4710
7.10937,6142
7.11508,7051
7.12082,8200
7.12653,7908
7.13225,7689
7.13798,7050
7.1437,5848
7.14942,5589
7.15513,5159
7.16087,4702
7.16658,3352
7.1723,4509
7.17803,2648
7.18375,3274
7.18947,2438
7.1952,2822
7.20092,2780
7.20663,1721
7.21237,2538
7.21808,2185
7.2238,2117
7.22953,2557
7.23525,1917
7.24097,2311
7.2467,1549
7.25242,2163
7.25813,2301
7.26387,1803
7.26958,1811
7.2753,2594
7.28102,2232
7.28675,1740
7.29247,2433
7.29818,3652
7.30392,5068
7.30963,5046
7.31535,5676
7.32108,5742
7.3268,4339
7.33252,3531
7.33825,2726
7.34397,3024
7.34968,2233
7.35542,2590
7.36113,2142
7.36685,1652
7.37258,1871
7.3783,1797
7.38402,1853
7.38975,1895
7.39547,2090
7.40118,2074
7.4069,1736
7.41263,1625
7.41835,1599
7.42407,1451
7.4298,1864
7.43552,1325
7.44123,1965
7.44697,1490
7.45268,1710
7.4584,1448
7.46413,1787
7.46985,2398
7.47557,1190
7.4813,1323
7.48702,1698
7.49273,1422
7.49847,1499
7.50418,1322
7.5099,2771
7.51563,1625
7.52135,2032
7.52707,2332
7.53278,1341
7.53852,1430
7.54423,1860
7.54995,1900
7.55568,2250
7.5614,2143
7.56712,1804
7.57285,1759
7.57857,2259
7.58428,2318
7.59002,1825
7.59573,2313
7.60145,1659
7.60718,1343
7.6129,1777
7.61862,1980
7.62435,2282
7.63007,1954
7.63578,2422
7.64152,2136
7.64723,2121
7.65295,1715
7.65867,2276
7.6644,2436
7.67012,2506
7.67583,1838
7.68157,1673
7.68728,2332
7.693,2787
7.69873,2480
7.70445,2249
7.71017,2309
7.7159,2386
7.72162,2120
7.72733,2583
7.73307,2646
7.73878,2649
7.7445,2680
7.75023,2411
7.75595,2902
7.76167,2032
7.7674,1992
7.77312,2435
7.77883,1936
7.78455,1830
7.79028,2131
7.796,1570
7.80172,2092
7.80745,2272
7.81317,2253
7.81888,1688
7.82462,2266
7.83033,1957
7.83605,1420
7.84178,2549
7.8475,2154
7.85322,2035
7.85895,2048
7.86467,2049
7.87038,2127
7.87612,2115
7.88183,2678
7.88755,1766
7.89328,2149
7.899,2394
7.90472,2181
7.91045,1995
7.91617,2274
7.92188,2439
7.9276,2166
7.93333,2271
7.93905,2521
7.94477,2608
7.9505,2528
7.95622,2058
7.96193,1696
7.96767,2571
7.97338,2699
7.9791,1964
7.98483,2425
7.99055,1412
7.99627,2332
8.002,1970
8.00772,2009
8.01343,2259
8.01917,2140
8.02488,1969
8.0306,2002
8.03633,2081
8.04205,2581
8.04777,2481
8.05348,2679
8.05922,2576
8.06493,1894
8.07065,2027
8.07638,2042
8.0821,2879
8.08782,2081
8.09355,1910
8.09927,1715
8.10498,2486
8.11072,1950
8.11643,2375
8.12215,2371
8.12788,2416
8.1336,2495
8.13932,2154
8.14505,2420
8.15077,2132
8.15648,2446
8.16222,1964
8.16793,2906
8.17365,1884
8.17937,2512
8.1851,2564
8.19082,2433
8.19653,2060
8.20227,2229
8.20798,1902
8.2137,2721
8.21943,2063
8.22515,2707
8.23087,2099
8.2366,2637
8.24232,2571
8.24803,2505
8.25377,2531
8.25948,2460
8.2652,1907
8.27093,2367
8.27665,2014
8.28237,2364
8.2881,2920
8.29382,2858
8.29953,2555
8.30525,2468
8.31098,1520
8.3167,2327
8.32242,1780
8.32815,2536
8.33387,1846
8.33958,2148
8.34532,2503
8.35103,2281
8.35675,3350
8.36248,2885
8.3682,2209
8.37392,2606
8.37965,1554
8.38537,2880
8.39108,2182
8.39682,2255
8.40253,2657
8.40825,2173
8.41398,2000
8.4197,1933
8.42542,2569
8.43113,2765
8.43687,2539
8.44258,1667
8.4483,2677
8.45403,2227
8.45975,2359
8.46547,2410
8.4712,2660
8.47692,2327
8.48263,2056
8.48837,2232
8.49408,2869
8.4998,2282
8.50553,2308
8.51125,2638
8.51697,2334
8.5227,2147
8.52842,2386
8.53413,1978
8.53987,2339
8.54558,2375
8.5513,2319
8.55702,2567
8.56275,2923
8.56847,2815
8.57418,2275
8.57992,2007
8.58563,2214
8.59135,2736
8.59708,2632
8.6028,2753
8.60852,2300
8.61425,2974
8.61997,2150
8.62568,2187
8.63142,1952
8.63713,2826
8.64285,2540
8.64858,1867
8.6543,2517
8.66002,2804
8.66575,3076
8.67147,2838
8.67718,2300
8.6829,2180
8.68863,2734
8.69435,2947
8.70007,2399
8.7058,2649
8.71152,2052
8.71723,2544
8.72297,2454
8.72868,2546
8.7344,2062
8.74013,2637
8.74585,2767
8.75157,2922
8.7573,2669
8.76302,2803
8.76873,1928
8.77447,2391
8.78018,2518
8.7859,3022
8.79163,2788
8.79735,2747
8.80307,2227
8.80878,3317
8.81452,2674
8.82023,2756
8.82595,2679
8.83168,2479
8.8374,2441
8.84312,2712
8.84885,2600
8.85457,2178
8.86028,3170
8.86602,2147
8.87173,2650
8.87745,2325
8.88318,3006
8.8889,2106
8.89462,2981
8.90035,2910
8.90607,2940
8.91178,2379
8.91752,2640
8.92323,2005
8.92895,2763
8.93467,3421
8.9404,3202
8.94612,2219
8.95183,2290
8.95757,2539
8.96328,2744
8.969,3378
8.97473,3185
8.98045,4354
8.98617,5556
8.9919,8039
8.99762,7922
9.00333,7228
9.00907,5342
9.01478,4236
9.0205,3388
9.02623,3202
9.03195,3551
9.03767,2785
9.0434,2782
9.04912,3228
9.05483,3049
9.06055,2553
9.06628,2599
9.072,3607
9.07772,2590
9.08345,2854
9.08917,3791
9.09488,3246
9.10062,2842
9.10633,2765
9.11205,2652
9.11778,2642
9.1235,3233
9.12922,3177
9.13495,2575
9.14067,3060
9.14638,3795
9.15212,3752
9.15783,2550
9.16355,3000
9.16928,2806
9.175,2389
9.18072,3088
9.18643,2686
9.19217,2063
9.19788,2599
9.2036,2748
9.20933,2428
9.21505,3602
9.22077,2412
9.2265,2190
9.23222,3177
9.23793,3054
9.24367,3607
9.24938,2844
9.2551,3026
9.26083,3140
9.26655,3305
9.27227,3652
9.278,3140
9.28372,3030
9.28943,2819
9.29517,2344
9.30088,3169
9.3066,2453
9.31232,3257
9.31805,2928
9.32377,3190
9.32948,2458
9.33522,2805
9.34093,2991
9.34665,2899
9.35238,2634
9.3581,3159
9.36382,2720
9.36955,3378
9.37527,3147
9.38098,2494
9.38672,2869
9.39243,3141
9.39815,3206
9.40388,2784
9.4096,2587
9.41532,2928
9.42105,2873
9.42677,2882
9.43248,3415
9.4382,2663
9.44393,2125
9.44965,3408
9.45537,3369
9.4611,2894
9.46682,2301
9.47253,2627
9.47827,3391
9.48398,3606
9.4897,2849
9.49543,3333
9.50115,2557
9.50687,2557
9.5126,2659
9.51832,2868
9.52403,3084
9.52977,2787
9.53548,2971
9.5412,3097
9.54693,2766
9.55265,3093
9.55837,3399
9.56408,2417
9.56982,2898
9.57553,2849
9.58125,2845
9.58698,3920
9.5927,2745
9.59842,2454
9.60415,3193
9.60987,2990
9.61558,3033
9.62132,3724
9.62703,2917
9.63275,2492
9.63848,3182
9.6442,3048
9.64992,2951
9.65565,3745
9.66137,3661
9.66708,3449
9.67282,3077
9.67853,3471
9.68425,3766
9.68997,2780
9.6957,2696
9.70142,2538
9.70713,2672
9.71287,3598
9.71858,3572
9.7243,3443
9.73003,3170
9.73575,3245
9.74147,3198
9.7472,3165
9.75292,2668
9.75863,3093
9.76437,2995
9.77008,2907
9.7758,3366
9.78153,2515
9.78725,3392
9.79297,2579
9.7987,3346
9.80442,3063
9.81013,2886
9.81585,2740
9.82158,2789
9.8273,3364
9.83302,3063
9.83875,3679
9.84447,3852
9.85018,2962
9.85592,2681
9.86163,3268
9.86735,3493
9.87308,2574
9.8788,2821
9.88452,3515
9.89025,3150
9.89597,2825
9.90168,3173
9.90742,2908
9.91313,3326
9.91885,3328
9.92458,2841
9.9303,3404
9.93602,3934
9.94173,3179
9.94747,3367
9.95318,3061
9.9589,3589
9.96463,2778
9.97035,3277
9.97607,2978
9.9818,3324
9.98752,3724
9.99323,3243
9.99897,3226
10.0047,3472
10.0104,3588
10.0161,3126
10.0219,3180
10.0276,3567
10.0333,2715
10.039,2895
10.0447,3283
10.0505,2973
10.0562,3871
10.0619,2774
10.0676,3277
10.0734,2735
10.0791,2532
10.0848,3294
10.0905,2936
10.0962,3716
10.102,3580
10.1077,3054
10.1134,2693
10.1191,3492
10.1249,2825
10.1306,2796
10.1363,3062
10.142,2431
10.1477,2761
10.1535,3007
10.1592,3477
10.1649,2072
10.1706,3549
10.1764,3154
10.1821,3174
10.1878,3008
10.1935,2966
10.1992,2946
10.205,2270
10.2107,2760
10.2164,3303
10.2221,3611
10.2278,3185
10.2336,3018
10.2393,3340
10.245,3339
10.2507,3041
10.2565,3514
10.2622,3678
10.2679,2594
10.2736,3881
10.2793,3033
10.2851,2849
10.2908,3226
10.2965,2977
10.3022,2832
10.308,2816
10.3137,2893
10.3194,3734
10.3251,2940
10.3308,3574
10.3366,3608
10.3423,2707
10.348,3627
10.3537,3177
10.3595,2766
10.3652,2781
10.3709,3064
10.3766,2970
10.3823,2644
10.3881,2678
10.3938,4036
10.3995,3597
10.4052,2821
10.411,3817
10.4167,2880
10.4224,3422
10.4281,5274
10.4338,7574
10.4396,6492
10.4453,6721
10.451,4498
10.4567,3515
10.4624,2171
10.4682,3674
10.4739,2970
10.4796,3595
10.4853,2405
10.4911,3130
10.4968,3434
10.5025,3616
10.5082,2458
10.5139,3093
10.5197,3275
10.5254,2911
10.5311,3465
10.5368,2925
10.5426,3523
10.5483,3853
10.554,3324
10.5597,3407
10.5654,3759
10.5712,2973
10.5769,3393
10.5826,3430
10.5883,3465
10.5941,4485
10.5998,11221
10.6055,30962
10.6112,77014
10.6169,146413
10.6227,193401
10.6284,175795
10.6341,116278
10.6398,55565
10.6456,24339
10.6513,10486
10.657,8161
10.6627,9612
10.6684,10860
10.6742,12212
10.6799,10568
10.6856,8858
10.6913,6704
10.697,4616
10.7028,4561
10.7085,3801
10.7142,4903
10.7199,4936
10.7257,4101
10.7314,4422
10.7371,4266
10.7428,3999
10.7485,3736
10.7543,3593
10.76,3570
10.7657,3711
10.7714,3999
10.7772,3416
10.7829,4156
10.7886,3355
10.7943,3910
10.8,3128
10.8058,3258
10.8115,4176
10.8172,4096
10.8229,4197
10.8287,4714
10.8344,4761
10.8401,6841
10.8458,7471
10.8515,6987
10.8573,4762
10.863,4284
10.8687,4290
10.8744,3558
10.8802,4026
10.8859,3425
10.8916,3890
10.8973,3846
10.903,4818
10.9088,4513
10.9145,3394
10.9202,3568
10.9259,3329
10.9317,3353
10.9374,3929
10.9431,3857
10.9488,3727
10.9545,3572
10.9603,3886
10.966,4089
10.9717,4013
10.9774,4259
10.9831,3056
10.9889,3196
10.9946,3908
11.0003,3437
11.006,4904
11.0118,4392
11.0175,3726
11.0232,3685
11.0289,3704
11.0346,3656
11.0404,3631
11.0461,3410
11.0518,3880
11.0575,3432
11.0633,3802
11.069,3451
11.0747,3944
11.0804,3581
11.0861,3342
11.0919,3957
11.0976,3937
11.1033,3706
11.109,3573
11.1148,3678
11.1205,3280
11.1262,3580
11.1319,4259
11.1376,3431
11.1434,4138
11.1491,4780
11.1548,4035
11.1605,4434
11.1663,3878
11.172,4137
11.1777,4344
11.1834,3453
11.1891,4511
11.1949,3381
11.2006,4674
11.2063,3924
11.212,4414
11.2177,4301
11.2235,4623
11.2292,4539
11.2349,5819
11.2406,6426
11.2464,6672
11.2521,6939
11.2578,6626
11.2635,7733
11.2692,6621
11.275,8382
11.2807,6988
11.2864,8229
11.2921,7541
11.2979,7394
11.3036,7572
11.3093,7342
11.315,6720
11.3207,7454
11.3265,6282
11.3322,7554
11.3379,6427
11.3436,6255
11.3494,5615
11.3551,6836
11.3608,6917
11.3665,6074
11.3722,6424
11.378,5972
11.3837,6212
11.3894,6168
11.3951,5928
11.4009,5334
11.4066,4525
11.4123,6120
11.418,6672
11.4237,5303
11.4295,5939
11.4352,6531
11.4409,6451
11.4466,5928
11.4523,5127
11.4581,5867
11.4638,5782
11.4695,5719
11.4752,7037
11.481,5320
11.4867,5411
11.4924,5127
11.4981,4950
11.5038,5462
11.5096,5320
11.5153,5503
11.521,5390
11.5267,4218
11.5325,6265
11.5382,5240
11.5439,4477
11.5496,4646
11.5553,4705
11.5611,4910
11.5668,4495
11.5725,4563
11.5782,5685
11.584,4185
11.5897,5451
11.5954,4984
11.6011,4575
11.6068,5137
11.6126,5243
11.6183,5515
11.624,5134
11.6297,4521
11.6355,4886
11.6412,4239
11.6469,5517
11.6526,5117
11.6583,4401
11.6641,4312
11.6698,5774
11.6755,4636
11.6812,5274
11.687,4482
11.6927,5013
11.6984,4780
11.7041,5192
11.7098,5709
11.7156,6355
11.7213,7086
11.727,7226
11.7327,6667
11.7384,5055
11.7442,5110
11.7499,4332
11.7556,5375
11.7613,5117
11.7671,4665
11.7728,4420
11.7785,4180
11.7842,4752
11.7899,4686
11.7957,4501
11.8014,4310
11.8071,5402
11.8128,4448
11.8186,4911
11.8243,3893
11.83,5035
11.8357,4674
11.8414,4479
11.8472,3490
11.8529,4816
11.8586,4816
11.8643,4619
11.8701,5097
11.8758,4606
11.8815,4318
11.8872,4458
11.8929,3738
11.8987,5068
11.9044,4861
11.9101,4460
11.9158,5264
11.9216,4805
11.9273,4572
11.933,5090
11.9387,4649
11.9444,4406
11.9502,4186
11.9559,4620
11.9616,4775
11.9673,5169
11.973,4875
11.9788,4251
11.9845,5158
11.9902,4792
11.9959,4629
12.0017,4763
12.0074,3799
12.0131,4854
12.0188,4154
12.0245,4243
12.0303,5227
12.036,4825
12.0417,4867
12.0474,4530
12.0532,4634
12.0589,5679
12.0646,4644
12.0703,4765
12.076,4296
12.0818,4041
12.0875,4275
12.0932,4611
12.0989,5041
12.1047,5494
12.1104,5474
12.1161,6010
12.1218,8596
12.1275,9745
12.1333,11158
12.139,8434
12.1447,8135
12.1504,5840
12.1562,4851
12.1619,6157
12.1676,5401
12.1733,4399
12.179,4118
12.1848,4561
12.1905,5216
12.1962,4982
12.2019,3828
12.2077,4685
12.2134,4569
12.2191,5649
12.2248,5005
12.2305,4361
12.2363,4836
12.242,4172
12.2477,5127
12.2534,5295
12.2591,4582
12.2649,4779
12.2706,4980
12.2763,5254
12.282,5237
12.2878,5625
12.2935,5161
12.2992,5875
12.3049,5516
12.3106,5626
12.3164,5807
12.3221,5886
12.3278,6065
12.3335,5871
12.3393,6336
12.345,5133
12.3507,4540
12.3564,4919
12.3621,6143
12.3679,6134
12.3736,5824
12.3793,5998
12.385,6185
12.3908,7136
12.3965,6035
12.4022,6114
12.4079,7699
12.4136,7863
12.4194,6651
12.4251,8259
12.4308,7370
12.4365,8590
12.4423,7917
12.448,7957
12.4537,8462
12.4594,8969
12.4651,8447
12.4709,8905
12.4766,8732
12.4823,7784
12.488,8469
12.4937,8383
12.4995,8199
12.5052,8708
12.5109,7663
12.5166,8872
12.5224,8256
12.5281,8081
12.5338,8744
12.5395,7865
12.5452,7447
12.551,8546
12.5567,7728
12.5624,6844
12.5681,8391
12.5739,8518
12.5796,8061
12.5853,8795
12.591,7315
12.5967,7304
12.6025,8777
12.6082,8494
12.6139,7977
12.6196,8696
12.6254,9811
12.6311,9423
12.6368,8888
12.6425,10119
12.6482,9037
12.654,9265
12.6597,10011
12.6654,9934
12.6711,9372
12.6769,9120
12.6826,9092
12.6883,9136
12.694,8957
12.6997,9165
12.7055,9040
12.7112,8738
12.7169,9957
12.7226,9498
12.7283,9279
12.7341,9555
12.7398,8867
12.7455,9454
12.7512,8634
12.757,9793
12.7627,9256
12.7684,7917
12.7741,8675
12.7798,8283
12.7856,9956
12.7913,9412
12.797,9158
12.8027,8432
12.8085,9848
12.8142,9628
12.8199,10200
12.8256,9636
12.8313,8874
12.8371,8203
12.8428,8631
12.8485,9204
12.8542,9531
12.86,9696
12.8657,8771
12.8714,7604
12.8771,9381
12.8828,8721
12.8886,8670
12.8943,10678
12.9,12527
12.9057,11583
12.9115,10308
12.9172,9667
12.9229,9110
12.9286,8800
12.9343,8870
12.9401,8529
12.9458,8554
12.9515,8634
12.9572,9013
12.963,9253
12.9687,7840
12.9744,7775
12.9801,7701
12.9858,9183
12.9916,8698
12.9973,8466
13.003,8436
13.0087,8112
13.0144,8290
13.0202,9080
13.0259,8045
13.0316,8786
13.0373,8185
13.0431,8022
13.0488,7644
13.0545,9343
13.0602,6993
13.0659,8063
13.0717,8550
13.0774,8453
13.0831,8185
13.0888,8483
13.0946,7193
13.1003,6778
13.106,8148
13.1117,7582
13.1174,7962
13.1232,8066
13.1289,7618
13.1346,7226
13.1403,7137
13.1461,7340
13.1518,8853
13.1575,8052
13.1632,8412
13.1689,7893
13.1747,7487
13.1804,7312
13.1861,7364
13.1918,8205
13.1976,7666
13.2033,7696
13.209,7739
13.2147,7415
13.2204,7114
13.2262,9068
13.2319,7353
13.2376,7329
13.2433,7813
13.249,7264
13.2548,8163
13.2605,7792
13.2662,7605
13.2719,7778
13.2777,7614
13.2834,7535
13.2891,6849
13.2948,7367
13.3005,7662
13.3063,7872
13.312,7622
13.3177,8261
13.3234,7344
13.3292,7799
13.3349,6849
13.3406,7614
13.3463,7744
13.352,8071
13.3578,6976
13.3635,7312
13.3692,7052
13.3749,7309
13.3807,8586
13.3864,8316
13.3921,7354
13.3978,6951
13.4035,7728
13.4093,7732
13.415,7491
13.4207,7542
13.4264,8330
13.4322,7472
13.4379,7810
13.4436,7078
13.4493,7353
13.455,7994
13.4608,8086
13.4665,7771
13.4722,7327
13.4779,8164
13.4836,8743
13.4894,7395
13.4951,8389
13.5008,6982
13.5065,8093
13.5123,7211
13.518,7712
13.5237,7634
13.5294,8057
13.5351,7623
13.5409,7434
13.5466,7936
13.5523,7022
13.558,6969
13.5638,7663
13.5695,8657
13.5752,8712
13.5809,7903
13.5866,8122
13.5924,7166
13.5981,8284
13.6038,9695
13.6095,8021
13.6153,9007
13.621,8527
13.6267,8408
13.6324,8941
13.6381,8042
13.6439,8228
13.6496,8312
13.6553,8070
13.661,9313
13.6668,8338
13.6725,7554
13.6782,9038
13.6839,8114
13.6896,8286
13.6954,7655
13.7011,7898
13.7068,7850
13.7125,8037
13.7183,7775
13.724,7727
13.7297,8210
13.7354,8092
13.7411,8202
13.7469,8421
13.7526,7713
13.7583,8149
13.764,8216
13.7697,8061
13.7755,7120
13.7812,8116
13.7869,7387
13.7926,8466
13.7984,8710
13.8041,8515
13.8098,8027
13.8155,7815
13.8212,7175
13.827,8550
13.8327,7303
13.8384,7955
13.8441,7284
13.8499,7992
13.8556,8450
13.8613,7941
13.867,8775
13.8727,8266
13.8785,8549
13.8842,8162
13.8899,8092
13.8956,8057
13.9014,8448
13.9071,8076
13.9128,7226
13.9185,7856
13.9242,7813
13.93,8463
13.9357,8765
13.9414,7452
13.9471,8707
13.9529,9063
13.9586,9725
13.9643,10715
13.97,11718
13.9757,9872
13.9815,10100
13.9872,9784
13.9929,8971
13.9986,9255
14.0043,7969
14.0101,9374
14.0158,7521
14.0215,8007
14.0272,7488
14.033,7924
14.0387,7749
14.0444,8288
14.0501,9051
14.0558,8636
14.0616,8010
14.0673,7733
14.073,8604
14.0787,8204
14.0845,8250
14.0902,7960
14.0959,8130
14.1016,8577
14.1073,7968
14.1131,7695
14.1188,7846
14.1245,8737
14.1302,8773
14.136,7722
14.1417,8404
14.1474,9787
14.1531,9723
14.1588,9899
14.1646,10697
14.1703,10031
14.176,9123
14.1817,9197
14.1875,8275
14.1932,8328
14.1989,8828
14.2046,8445
14.2103,8365
14.2161,7208
14.2218,9227
14.2275,8987
14.2332,9489
14.2389,8408
14.2447,8733
14.2504,8524
14.2561,8524
14.2618,9062
14.2676,8896
14.2733,8549
14.279,8913
14.2847,9135
14.2904,8476
14.2962,8893
14.3019,9770
14.3076,9405
14.3133,8809
14.3191,9045
14.3248,9306
14.3305,8899
14.3362,8451
14.3419,9470
14.3477,9897
14.3534,9224
14.3591,9774
14.3648,9225
14.3706,9181
14.3763,8911
14.382,9774
14.3877,9383
14.3934,9637
14.3992,9295
14.4049,9973
14.4106,9375
14.4163,10619
14.4221,9094
14.4278,10450
14.4335,9282
14.4392,10923
14.4449,9146
14.4507,10695
14.4564,10369
14.4621,9710
14.4678,9099
14.4736,10312
14.4793,10741
14.485,10684
14.4907,10907
14.4964,10109
14.5022,9978
14.5079,10381
14.5136,10904
14.5193,11030
14.525,10057
14.5308,11026
14.5365,10692
14.5422,10597
14.5479,10789
14.5537,11266
14.5594,10490
14.5651,11785
14.5708,10359
14.5765,11228
14.5823,10500
14.588,9782
14.5937,11098
14.5994,10830
14.6052,10387
14.6109,11177
14.6166,10198
14.6223,10380
14.628,11320
14.6338,10930
14.6395,9804
14.6452,11314
14.6509,11214
14.6567,10498
14.6624,10908
14.6681,11429
14.6738,11756
14.6795,13100
14.6853,11360
14.691,12288
14.6967,12523
14.7024,11244
14.7082,12079
14.7139,11601
14.7196,12115
14.7253,12248
14.731,12363
14.7368,12106
14.7425,12230
14.7482,12443
14.7539,11322
14.7596,12987
14.7654,11272
14.7711,12318
14.7768,13208
14.7825,11975
14.7883,12151
14.794,12134
14.7997,13766
14.8054,12741
14.8111,12984
14.8169,12606
14.8226,12826
14.8283,13994
14.834,11407
14.8398,13535
14.8455,13885
14.8512,13081
14.8569,12867
14.8626,13743
14.8684,14509
14.8741,14551
14.8798,14885
14.8855,13671
14.8913,14167
14.897,13205
14.9027,14239
14.9084,14571
14.9141,14912
14.9199,14693
14.9256,14287
14.9313,14540
14.937,14486
14.9428,16030
14.9485,15742
14.9542,18924
14.9599,18096
14.9656,18669
14.9714,17802
14.9771,16030
14.9828,15009
14.9885,14940
14.9942,15012
15,15078
15.0057,16461
15.0114,15375
15.0171,15755
15.0229,15967
15.0286,15432
15.0343,16124
15.04,15611
15.0457,16932
15.0515,14584
15.0572,16082
15.0629,16044
15.0686,15731
15.0744,15867
15.0801,16602
15.0858,17727
15.0915,17543
15.0972,17275
15.103,17937
15.1087,17068
15.1144,16223
15.1201,16288
15.1259,16875
15.1316,17503
15.1373,17929
15.143,17637
15.1487,18065
15.1545,16370
15.1602,17095
15.1659,17882
15.1716,17946
15.1774,17000
15.1831,18228
15.1888,17924
15.1945,18745
15.2002,17592
15.206,17274
15.2117,17887
15.2174,19239
15.2231,19324
15.2289,18341
15.2346,18541
15.2403,17761
15.246,17746
15.2517,18959
15.2575,18096
15.2632,18556
15.2689,19578
15.2746,18164
15.2803,20527
15.2861,18981
15.2918,20552
15.2975,18945
15.3032,19322
15.309,20449
15.3147,20118
15.3204,20564
15.3261,19060
15.3318,19809
15.3376,20576
15.3433,20940
15.349,18941
15.3547,20670
15.3605,21368
15.3662,21620
15.3719,21253
15.3776,22705
15.3833,21534
15.3891,21500
15.3948,21816
15.4005,22175
15.4062,20664
15.412,22051
15.4177,22333
15.4234,23359
15.4291,21918
15.4348,22558
15.4406,23367
15.4463,23463
15.452,23679
15.4577,23035
15.4635,23469
15.4692,22102
15.4749,22988
15.4806,23514
15.4863,24308
15.4921,23084
15.4978,22742
15.5035,23974
15.5092,24633
15.5149,23022
15.5207,25935
15.5264,24435
15.5321,25463
15.5378,24373
15.5436,24656
15.5493,25287
15.555,24899
15.5607,25713
15.5664,25727
15.5722,25020
15.5779,23659
15.5836,25370
15.5893,25774
15.5951,26512
15.6008,26006
15.6065,26034
15.6122,25971
15.6179,24293
15.6237,26983
15.6294,28026
15.6351,28113
15.6408,26551
15.6466,27431
15.6523,25933
15.658,26333
15.6637,28963
15.6694,28524
15.6752,26385
15.6809,28217
15.6866,27684
15.6923,28520
15.6981,28393
15.7038,28534
15.7095,29973
15.7152,29558
15.7209,30026
15.7267,28242
15.7324,28381
15.7381,29290
15.7438,31108
15.7496,29601
15.7553,28804
15.761,29651
15.7667,27700
15.7724,30853
15.7782,32194
15.7839,29852
15.7896,30888
15.7953,29466
15.801,29422
15.8068,30798
15.8125,31005
15.8182,30322
15.8239,31567
15.8297,31622
15.8354,32428
15.8411,30667
15.8468,31020
15.8525,31898
15.8583,32569
15.864,30554
15.8697,31895
15.8754,33468
15.8812,34560
15.8869,37740
15.8926,36653
15.8983,36529
15.904,35970
15.9098,33275
15.9155,34402
15.9212,34163
15.9269,34314
15.9327,34582
15.9384,36205
15.9441,35429
15.9498,33775
15.9555,35284
15.9613,34729
15.967,34519
15.9727,37217
15.9784,34847
15.9842,36362
15.9899,37093
15.9956,35490
16.0013,36132
16.007,36486
16.0128,36706
16.0185,36186
16.0242,38258
16.0299,37031
16.0356,38507
16.0414,36711
16.0471,37308
16.0528,37604
16.0585,37268
16.0643,38113
16.07,36965
16.0757,39944
16.0814,38785
16.0871,38021
16.0929,37946
16.0986,40786
16.1043,37424
16.11,38986
16.1157,42266
16.1215,40613
16.1272,40412
16.1329,42361
16.1386,40964
16.1443,40095
16.1501,42148
16.1558,40705
16.1615,42975
16.1672,42668
16.173,41706
16.1787,42449
16.1844,42108
16.1901,43937
16.1959,41359
16.2016,42466
16.2073,45356
16.213,42028
16.2188,44307
16.2245,43512
16.2302,43305
16.2359,43456
16.2416,45597
16.2474,43977
16.2531,44424
16.2588,44665
16.2645,45284
16.2702,43683
16.276,45231
16.2817,45593
16.2874,45076
16.2931,46668
16.2989,47756
16.3046,47574
16.3103,44917
16.316,47377
16.3217,47029
16.3275,47196
16.3332,44811
16.3389,46294
16.3446,48380
16.3503,47135
16.3561,48366
16.3618,47165
16.3675,46750
16.3732,48960
16.379,47586
16.3847,50144
16.3904,47926
16.3961,47979
16.4019,49372
16.4076,48906
16.4133,51027
16.419,50510
16.4247,49512
16.4305,50714
16.4362,50987
16.4419,51119
16.4476,49489
16.4534,51776
16.4591,53650
16.4648,50753
16.4705,54443
16.4762,54506
16.482,55229
16.4877,53920
16.4934,52325
16.4991,56045
16.5049,53649
16.5106,55092
16.5163,54244
16.522,55533
16.5277,55540
16.5334,58148
16.5392,55015
16.5449,55113
16.5506,56847
16.5563,57760
16.5621,57987
16.5678,58185
16.5735,57834
16.5792,56095
16.5849,58944
16.5907,58198
16.5964,56794
16.6021,56106
16.6078,57742
16.6136,57584
16.6193,60066
16.625,58633
16.6307,59591
16.6365,61389
16.6422,58818
16.6479,58393
16.6536,59450
16.6593,59066
16.6651,62370
16.6708,64030
16.6765,60652
16.6822,58770
16.688,62216
16.6937,63153
16.6994,62164
16.7051,64878
16.7108,64388
16.7166,63824
16.7223,61897
16.728,64761
16.7337,63275
16.7395,67185
16.7452,63406
16.7509,68051
16.7566,68264
16.7623,70194
16.768,69774
16.7738,66072
16.7795,67586
16.7852,68481
16.7909,66428
16.7967,66460
16.8024,68701
16.8081,66386
16.8138,66099
16.8196,68039
16.8253,67628
16.831,69782
16.8367,69131
16.8424,68071
16.8482,71358
16.8539,68105
16.8596,70036
16.8653,70838
16.8711,72393
16.8768,71620
16.8825,69861
16.8882,71651
16.8939,72006
16.8997,73186
16.9054,72533
16.9111,73530
16.9168,73668
16.9226,74260
16.9283,74700
16.934,73528
16.9397,73864
16.9454,75091
16.9511,74356
16.9569,78872
16.9626,77379
16.9683,76403
16.974,78666
16.9798,78087
16.9855,77648
16.9912,76865
16.9969,77537
17.0026,72962
17.0084,76221
17.0141,79748
17.0198,78886
17.0255,80510
17.0313,79688
17.037,82576
17.0427,78330
17.0484,82697
17.0542,81437
17.0599,80267
17.0656,79839
17.0713,80019
17.077,80003
17.0828,83385
17.0885,84798
17.0942,81020
17.0999,83364
17.1057,85479
17.1114,83512
17.1171,84511
17.1228,86737
17.1285,85647
17.1343,83641
17.14,85321
17.1457,88347
17.1514,88066
17.1572,86370
17.1629,85199
17.1686,85482
17.1743,87880
17.18,85736
17.1857,86085
17.1915,83366
17.1972,88474
17.2029,86524
17.2086,89139
17.2144,90021
17.2201,88653
17.2258,91450
17.2315,88457
17.2373,91853
17.243,88338
17.2487,89864
17.2544,89126
17.2601,87956
17.2659,91861
17.2716,90509
17.2773,90353
17.283,90731
17.2888,89827
17.2945,93310
17.3002,92487
17.3059,91887
17.3116,93814
17.3174,93066
17.3231,94573
17.3288,92180
17.3345,92670
17.3403,94552
17.346,95409
17.3517,94282
17.3574,94605
17.3631,92222
17.3689,92978
17.3746,93620
17.3803,94015
17.386,95434
17.3917,94625
17.3975,94578
17.4032,94358
17.4089,93933
17.4146,98906
17.4203,93099
17.4261,97271
17.4318,94059
17.4375,94714
17.4433,96866
17.449,97564
17.4547,97041
17.4604,95621
17.4661,101617
17.4719,97890
17.4776,98196
17.4833,97008
17.489,95428
17.4948,97562
17.5005,98402
17.5062,97370
17.5119,96899
17.5176,101026
17.5234,101115
17.5291,99411
17.5348,99027
17.5405,99844
17.5462,99007
17.552,99011
17.5577,97889
17.5634,97739
17.5691,100816
17.5749,100645
17.5806,102310
17.5863,97769
17.592,103826
17.5977,100019
17.6035,102558
17.6092,104082
17.6149,107452
17.6206,104928
17.6264,104925
17.6321,102390
17.6378,104437
17.6435,99021
17.6492,101566
17.6549,101710
17.6607,98559
17.6664,101318
17.6721,100929
17.6778,100677
17.6836,101566
17.6893,100896
17.695,101467
17.7007,99334
17.7065,102454
17.7122,103951
17.7179,104128
17.7236,104277
17.7294,102914
17.7351,101841
17.7408,103827
17.7465,102927
17.7522,104133
17.758,103570
17.7637,105045
17.7694,107798
17.7751,106227
17.7808,101332
17.7866,105205
17.7923,104197
17.798,106035
17.8037,106996
17.8095,104884
17.8152,101762
17.8209,103403
17.8266,106330
17.8323,106250
17.8381,102155
17.8438,104032
17.8495,108090
17.8552,107386
17.861,104684
17.8667,106434
17.8724,103612
17.8781,105957
17.8838,105191
17.8896,103533
17.8953,106043
17.901,105995
17.9067,110241
17.9125,105831
17.9182,106708
17.9239,108387
17.9296,106761
17.9353,105710
17.9411,107016
17.9468,107504
17.9525,107150
17.9582,107222
17.964,108975
17.9697,104953
17.9754,107151
17.9811,102971
17.9868,109439
17.9926,107971
