C:\MSDCHEM\1\DATA\SERINA\20170928 LACTONE_STD_CURVE\1.d 28 Sep 17   2:45 pm
Start of data points
5.09245,454221
5.09817,509862
5.1039,564102
5.10962,629439
5.11533,706339
5.12107,754289
5.12678,802858
5.1325,843264
5.13823,877409
5.14395,895193
5.14967,917907
5.1554,902578
5.16112,888063
5.16683,864277
5.17257,831070
5.17828,802195
5.184,771614
5.18972,733782
5.19545,683507
5.20117,649674
5.20688,602601
5.21262,567131
5.21833,526923
5.22405,490079
5.22978,449680
5.2355,416480
5.24122,385473
5.24695,359161
5.25267,337563
5.25838,314164
5.26412,284435
5.26983,265655
5.27555,251722
5.28128,233089
5.287,218246
5.29272,202204
5.29845,189682
5.30417,179342
5.30988,172375
5.3156,158894
5.32133,157219
5.32705,145657
5.33277,144977
5.3385,133361
5.34422,126297
5.34993,119301
5.35567,117502
5.36138,113606
5.3671,108531
5.37283,103732
5.37855,102539
5.38427,99085
5.39,96992
5.39572,95324
5.40143,92375
5.40717,87847
5.41288,88555
5.4186,86745
5.42433,83227
5.43005,80929
5.43577,79643
5.44148,79777
5.44722,79189
5.45293,73993
5.45865,76991
5.46438,70199
5.4701,71816
5.47582,71216
5.48155,71759
5.48727,69560
5.49298,68081
5.49872,69446
5.50443,67134
5.51015,64738
5.51588,65231
5.5216,62613
5.52732,61210
5.53305,60057
5.53877,62025
5.54448,60889
5.55022,60252
5.55593,58899
5.56165,59028
5.56737,56478
5.5731,58019
5.57882,54115
5.58453,55882
5.59027,55839
5.59598,53184
5.6017,54278
5.60743,53274
5.61315,52553
5.61887,52995
5.6246,53090
5.63032,50987
5.63603,51439
5.64177,49793
5.64748,51687
5.6532,52355
5.65893,48551
5.66465,48450
5.67037,49702
5.6761,50993
5.68182,47129
5.68753,50109
5.69325,46814
5.69898,46901
5.7047,47455
5.71042,48796
5.71615,45443
5.72187,47394
5.72758,47441
5.73332,46150
5.73903,44627
5.74475,45431
5.75048,46605
5.7562,44476
5.76192,45361
5.76765,41395
5.77337,46272
5.77908,45215
5.78482,45231
5.79053,45925
5.79625,45435
5.80198,44260
5.8077,44301
5.81342,47172
5.81913,51922
5.82487,61205
5.83058,69550
5.8363,90643
5.84203,114493
5.84775,130488
5.85347,137059
5.8592,125826
5.86492,110403
5.87063,95457
5.87637,82655
5.88208,69215
5.8878,64379
5.89353,60431
5.89925,55647
5.90497,54316
5.9107,51098
5.91642,51343
5.92213,48291
5.92787,49629
5.93358,44378
5.9393,47096
5.94502,44532
5.95075,44760
5.95647,43033
5.96218,43032
5.96792,42216
5.97363,38484
5.97935,42591
5.98508,50315
5.9908,74206
5.99652,129992
6.00225,216955
6.00797,327111
6.01368,451311
6.01942,560114
6.02513,604440
6.03085,563280
6.03658,455856
6.0423,347539
6.04802,243925
6.05375,174700
6.05947,132267
6.06518,104741
6.0709,85108
6.07663,73411
6.08235,64906
6.08807,61562
6.0938,56895
6.09952,51425
6.10523,48208
6.11097,43463
6.11668,42451
6.1224,39144
6.12813,40791
6.13385,40494
6.13957,38621
6.1453,40439
6.15102,40187
6.15673,36995
6.16247,37826
6.16818,37049
6.1739,35035
6.17963,37574
6.18535,36642
6.19107,37323
6.19678,36769
6.20252,34664
6.20823,37491
6.21395,33739
6.21968,35911
6.2254,34476
6.23112,35431
6.23685,35468
6.24257,35490
6.24828,34047
6.25402,34539
6.25973,33955
6.26545,34674
6.27118,34333
6.2769,35843
6.28262,38384
6.28835,38850
6.29407,38192
6.29978,38555
6.30552,40446
6.31123,41106
6.31695,42003
6.32267,38363
6.3284,38352
6.33412,37382
6.33983,34858
6.34557,35538
6.35128,35764
6.357,36011
6.36273,36151
6.36845,34847
6.37417,35574
6.3799,35128
6.38562,36397
6.39133,37067
6.39707,36155
6.40278,37004
6.4085,36058
6.41423,34150
6.41995,32755
6.42567,34532
6.4314,32466
6.43712,30072
6.44283,33073
6.44857,34361
6.45428,34020
6.46,34147
6.46572,33464
6.47145,32855
6.47717,32765
6.48288,32457
6.48862,33798
6.49433,32481
6.50005,33714
6.50578,33583
6.5115,34234
6.51722,32563
6.52295,33330
6.52867,31984
6.53438,32957
6.54012,32075
6.54583,33175
6.55155,33109
6.55728,31041
6.563,34278
6.56872,33391
6.57445,33005
6.58017,33413
6.58588,33588
6.5916,35900
6.59733,33967
6.60305,33141
6.60877,30811
6.6145,33515
6.62022,33964
6.62593,35358
6.63167,34777
6.63738,34149
6.6431,36624
6.64883,34928
6.65455,35397
6.66027,36436
6.666,34663
6.67172,35005
6.67743,34934
6.68317,34543
6.68888,34128
6.6946,32747
6.70033,32434
6.70605,34123
6.71177,34497
6.71748,34306
6.72322,35166
6.72893,32335
6.73465,31520
6.74038,31414
6.7461,32935
6.75182,30652
6.75755,32560
6.76327,29658
6.76898,30606
6.77472,31148
6.78043,32433
6.78615,32833
6.79188,32796
6.7976,33117
6.80332,32475
6.80905,32415
6.81477,32418
6.82048,33803
6.82622,30684
6.83193,31354
6.83765,30545
6.84337,29377
6.8491,29292
6.85482,30395
6.86053,31362
6.86627,31865
6.87198,31628
6.8777,29025
6.88343,30951
6.88915,30177
6.89487,29966
6.9006,29308
6.90632,29726
6.91203,31086
6.91777,30115
6.92348,31211
6.9292,30166
6.93493,31110
6.94065,29659
6.94637,30795
6.9521,30441
6.95782,31169
6.96353,29882
6.96925,29686
6.97498,31159
6.9807,29235
6.98642,30012
6.99215,30866
6.99787,30876
7.00358,29425
7.00932,30303
7.01503,29966
7.02075,28677
7.02648,29502
7.0322,29228
7.03792,30663
7.04365,28927
7.04937,28541
7.05508,30052
7.06082,30209
7.06653,30592
7.07225,28488
7.07798,29238
7.0837,31191
7.08942,29489
7.09513,29748
7.10087,28895
7.10658,30888
7.1123,29540
7.11803,29753
7.12375,29510
7.12947,29483
7.1352,26578
7.14092,27690
7.14663,30168
7.15237,30208
7.15808,29808
7.1638,28838
7.16953,29023
7.17525,29476
7.18097,28775
7.1867,29005
7.19242,30278
7.19813,29904
7.20387,29234
7.20958,30237
7.2153,28323
7.22102,29172
7.22675,31300
7.23247,28919
7.23818,26990
7.24392,28031
7.24963,27968
7.25535,26783
7.26108,29484
7.2668,27191
7.27252,27955
7.27825,27975
7.28397,28416
7.28968,27395
7.29542,27320
7.30113,28089
7.30685,26722
7.31258,26995
7.3183,29061
7.32402,26027
7.32975,26764
7.33547,28407
7.34118,27475
7.3469,28473
7.35263,26931
7.35835,27350
7.36407,28235
7.3698,28042
7.37552,26475
7.38123,27074
7.38697,27102
7.39268,27264
7.3984,26702
7.40413,27171
7.40985,27012
7.41557,26322
7.4213,28481
7.42702,28658
7.43273,27524
7.43847,26494
7.44418,28012
7.4499,26134
7.45563,26031
7.46135,26950
7.46707,26960
7.47278,28177
7.47852,27795
7.48423,29632
7.48995,28462
7.49568,29991
7.5014,29084
7.50712,28696
7.51285,27735
7.51857,27054
7.52428,29626
7.53002,27792
7.53573,29390
7.54145,29580
7.54718,25834
7.5529,27726
7.55862,28264
7.56435,28576
7.57007,31137
7.57578,36888
7.58152,70090
7.58723,132827
7.59295,216285
7.59867,319602
7.6044,352424
7.61012,310725
7.61583,199853
7.62157,110910
7.62728,68596
7.633,44602
7.63873,36387
7.64445,31944
7.65017,31738
7.6559,31057
7.66162,29549
7.66733,28544
7.67307,28700
7.67878,28599
7.6845,29449
7.69023,29220
7.69595,28302
7.70167,30503
7.7074,30113
7.71312,29805
7.71883,29578
7.72455,27539
7.73028,28033
7.736,28295
7.74172,27341
7.74745,27188
7.75317,28468
7.75888,29072
7.76462,28564
7.77033,29903
7.77605,31214
7.78178,30774
7.7875,30864
7.79322,29695
7.79895,30675
7.80467,31275
7.81038,30869
7.81612,31162
7.82183,31805
7.82755,33201
7.83328,32406
7.839,35040
7.84472,33618
7.85043,35641
7.85617,36101
7.86188,36262
7.8676,34898
7.87333,34761
7.87905,33287
7.88477,33946
7.8905,35495
7.89622,35565
7.90193,35434
7.90767,34845
7.91338,34617
7.9191,34060
7.92483,33049
7.93055,34168
7.93627,33810
7.942,35133
7.94772,37083
7.95343,35202
7.95917,34472
7.96488,31821
7.9706,31045
7.97632,30461
7.98205,31433
7.98777,28588
7.99348,29031
7.99922,28022
8.00493,30581
8.01065,29004
8.01638,28568
8.0221,29336
8.02782,27591
8.03355,29543
8.03927,28287
8.04498,29953
8.05072,31506
8.05643,28254
8.06215,34796
8.06788,39501
8.0736,49073
8.07932,52045
8.08505,53266
8.09077,50795
8.09648,47339
8.1022,43916
8.10793,40221
8.11365,39819
8.11937,36652
8.1251,37297
8.13082,33287
8.13653,32994
8.14227,32125
8.14798,31121
8.1537,32771
8.15943,30978
8.16515,31860
8.17087,31075
8.1766,31462
8.18232,29247
8.18803,28883
8.19377,28712
8.19948,27873
8.2052,28067
8.21093,28160
8.21665,30414
8.22237,28769
8.22808,29132
8.23382,30176
8.23953,27159
8.24525,26684
8.25098,26857
8.2567,28862
8.26242,27071
8.26815,26230
8.27387,27995
8.27958,28146
8.28532,26389
8.29103,26970
8.29675,24840
8.30248,26308
8.3082,26620
8.31392,26032
8.31965,26960
8.32537,28243
8.33108,28127
8.33682,29275
8.34253,31470
8.34825,29789
8.35397,30436
8.3597,29099
8.36542,27378
8.37113,26324
8.37687,26837
8.38258,26892
8.3883,25872
8.39403,26863
8.39975,26862
8.40547,25883
8.4112,25889
8.41692,27442
8.42263,27955
8.42837,25409
8.43408,27806
8.4398,26790
8.44553,24820
8.45125,24779
8.45697,24534
8.4627,24524
8.46842,26031
8.47413,25951
8.47985,27052
8.48558,24866
8.4913,26037
8.49702,26472
8.50275,24631
8.50847,25640
8.51418,26353
8.51992,26757
8.52563,24915
8.53135,27964
8.53708,27696
8.5428,27400
8.54852,29574
8.55425,30929
8.55997,30716
8.56568,33324
8.57142,34604
8.57713,33290
8.58285,30960
8.58858,32369
8.5943,30140
8.60002,29616
8.60573,29515
8.61147,29075
8.61718,26758
8.6229,28238
8.62863,29609
8.63435,26818
8.64007,26493
8.6458,28071
8.65152,27734
8.65723,26880
8.66297,27742
8.66868,27697
8.6744,26049
8.68013,26592
8.68585,26497
8.69157,28088
8.6973,26312
8.70302,28678
8.70873,26140
8.71447,25888
8.72018,27670
8.7259,28135
8.73162,26968
8.73735,26964
8.74307,27740
8.74878,27440
8.75452,26100
8.76023,27437
8.76595,27991
8.77168,28171
8.7774,28904
8.78312,28050
8.78885,28679
8.79457,30544
8.80028,29758
8.80602,33263
8.81173,29995
8.81745,32145
8.82318,28075
8.8289,27943
8.83462,30959
8.84035,28015
8.84607,28985
8.85178,28102
8.8575,27044
8.86323,27446
8.86895,27426
8.87467,26116
8.8804,25825
8.88612,24104
8.89183,26352
8.89757,24509
8.90328,24976
8.909,24809
8.91473,25142
8.92045,26897
8.92617,28508
8.9319,26441
8.93762,25730
8.94333,26157
8.94907,26622
8.95478,26774
8.9605,26816
8.96623,28367
8.97195,28846
8.97767,35365
8.98338,63689
8.98912,122808
8.99483,193344
9.00055,245049
9.00628,239735
9.012,171803
9.01772,101943
9.02345,54845
9.02917,33876
9.03488,29096
9.04062,26838
9.04633,26511
9.05205,24307
9.05778,25223
9.0635,26976
9.06922,24247
9.07495,25568
9.08067,25270
9.08638,24218
9.09212,25654
9.09783,23580
9.10355,24833
9.10927,26013
9.115,24941
9.12072,26203
9.12643,23958
9.13217,24350
9.13788,24067
9.1436,23157
9.14933,24475
9.15505,25314
9.16077,26565
9.1665,29023
9.17222,27591
9.17793,27421
9.18367,25732
9.18938,25938
9.1951,24993
9.20083,24304
9.20655,24126
9.21227,24923
9.218,25271
9.22372,26063
9.22943,26510
9.23515,24076
9.24088,25099
9.2466,23326
9.25232,24067
9.25805,25705
9.26377,26180
9.26948,26331
9.27522,24608
9.28093,25274
9.28665,26026
9.29238,23444
9.2981,25905
9.30382,25417
9.30955,25247
9.31527,24959
9.32098,26475
9.32672,24728
9.33243,24787
9.33815,24976
9.34388,25119
9.3496,25614
9.35532,25472
9.36103,25421
9.36677,26475
9.37248,24199
9.3782,25463
9.38393,27173
9.38965,26145
9.39537,25070
9.4011,26362
9.40682,25470
9.41253,24351
9.41827,28300
9.42398,29314
9.4297,29260
9.43543,32610
9.44115,39377
9.44687,47379
9.4526,61072
9.45832,78959
9.46403,96629
9.46977,108144
9.47548,122526
9.4812,141703
9.48692,156398
9.49265,165018
9.49837,171832
9.50408,175846
9.50982,179674
9.51553,190233
9.52125,198721
9.52698,194781
9.5327,191094
9.53842,188340
9.54415,181061
9.54987,164199
9.55558,150371
9.56132,135750
9.56703,122785
9.57275,110190
9.57848,99674
9.5842,89396
9.58992,82516
9.59565,77895
9.60137,73301
9.60708,70253
9.6128,64373
9.61853,63526
9.62425,66323
9.62997,71736
9.6357,88703
9.64142,125350
9.64713,175516
9.65287,226906
9.65858,312567
9.6643,390077
9.67003,478868
9.67575,582822
9.68147,662733
9.6872,768831
9.69292,893140
9.69863,998551
9.70437,1143223
9.71008,1253006
9.7158,1452212
9.72153,1577985
9.72725,1736949
9.73297,1852071
9.73868,1975806
9.74442,2138852
9.75013,2298690
9.75585,2515985
9.76158,2602861
9.7673,2777716
9.77302,2870556
9.77875,2271365
9.78447,616817
9.79018,303811
9.79592,245688
9.80163,217056
9.80735,200296
9.81308,181748
9.8188,169741
9.82452,161425
9.83025,158988
9.83597,148795
9.84168,144061
9.84742,135617
9.85313,130706
9.85885,127767
9.86457,123301
9.8703,124793
9.87602,119132
9.88173,120351
9.88747,116347
9.89318,107926
9.8989,113149
9.90463,109962
9.91035,109347
9.91607,107881
9.9218,106297
9.92752,107997
9.93323,97269
9.93897,101090
9.94468,97997
9.9504,99444
9.95613,95516
9.96185,95546
9.96757,95208
9.9733,97970
9.97902,95246
9.98473,92585
9.99045,89917
9.99618,92271
10.0019,88869
10.0076,90235
10.0134,90625
10.0191,85578
10.0248,89193
10.0305,85569
10.0362,85383
10.042,86179
10.0477,84955
10.0534,84422
10.0591,82370
10.0649,86668
10.0706,80847
10.0763,82188
10.082,83869
10.0877,79070
10.0935,81901
10.0992,78803
10.1049,80792
10.1106,80165
10.1163,80550
10.1221,81508
10.1278,82519
10.1335,78199
10.1392,82627
10.145,79240
10.1507,79610
10.1564,76057
10.1621,78187
10.1678,74860
10.1736,76419
10.1793,73819
10.185,74726
10.1907,76054
10.1965,73975
10.2022,72232
10.2079,75649
10.2136,71968
10.2193,73027
10.2251,73185
10.2308,72925
10.2365,71225
10.2422,73308
10.248,81576
10.2537,106264
10.2594,150830
10.2651,209456
10.2708,243843
10.2766,224149
10.2823,173365
10.288,125245
10.2937,97632
10.2995,88249
10.3052,84938
10.3109,84343
10.3166,79689
10.3223,75697
10.3281,76394
10.3338,74039
10.3395,72766
10.3452,68716
10.351,68593
10.3567,67045
10.3624,67176
10.3681,66542
10.3738,65677
10.3796,64425
10.3853,64548
10.391,65107
10.3967,66324
10.4024,64074
10.4082,64353
10.4139,61289
10.4196,61000
10.4253,63490
10.4311,62158
10.4368,61183
10.4425,61660
10.4482,60717
10.4539,61456
10.4597,58916
10.4654,63365
10.4711,66455
10.4768,72005
10.4826,79328
10.4883,90708
10.494,93004
10.4997,87505
10.5054,88788
10.5112,82769
10.5169,77084
10.5226,73905
10.5283,71874
10.5341,69536
10.5398,68068
10.5455,65465
10.5512,66637
10.5569,66986
10.5627,68219
10.5684,74321
10.5741,82560
10.5798,88111
10.5856,92833
10.5913,90374
10.597,89082
10.6027,81101
10.6084,73152
10.6142,69263
10.6199,70860
10.6256,69392
10.6313,70606
10.637,68813
10.6428,70951
10.6485,64961
10.6542,63057
10.6599,64569
10.6657,62982
10.6714,61534
10.6771,64869
10.6828,63751
10.6885,64880
10.6943,65171
10.7,66715
10.7057,69206
10.7114,66825
10.7172,67891
10.7229,67188
10.7286,68469
10.7343,68779
10.74,71117
10.7458,72440
10.7515,74190
10.7572,75748
10.7629,73660
10.7687,73822
10.7744,73369
10.7801,74169
10.7858,74770
10.7915,73095
10.7973,76132
10.803,76622
10.8087,78528
10.8144,80051
10.8202,74488
10.8259,77400
10.8316,75894
10.8373,77442
10.843,81063
10.8488,78579
10.8545,80740
10.8602,78131
10.8659,79447
10.8717,77095
10.8774,81306
10.8831,82549
10.8888,80458
10.8945,84779
10.9003,85747
10.906,88104
10.9117,84353
10.9174,90700
10.9231,87065
10.9289,90528
10.9346,93259
10.9403,93512
10.946,96133
10.9518,96157
10.9575,98783
10.9632,100285
10.9689,104074
10.9746,107817
10.9804,114849
10.9861,136410
10.9918,163154
10.9975,199969
11.0033,237474
11.009,261407
11.0147,294466
11.0204,322016
11.0261,358001
11.0319,392169
11.0376,448540
11.0433,502324
11.049,576830
11.0548,661725
11.0605,798173
11.0662,927726
11.0719,1083675
11.0776,1235981
11.0834,1385318
11.0891,1492497
11.0948,1630799
11.1005,1786780
11.1063,1940768
11.112,2096485
11.1177,2284430
11.1234,2505604
11.1291,2690350
11.1349,2938069
11.1406,3207595
11.1463,3447799
11.152,3640235
11.1577,3796766
11.1635,3987135
11.1692,3991845
11.1749,3364541
11.1806,2778460
11.1864,2543786
11.1921,1668920
11.1978,823782
11.2035,552073
11.2092,452144
11.215,396385
11.2207,368858
11.2264,342635
11.2321,327385
11.2379,307689
11.2436,299268
11.2493,295773
11.255,295632
11.2607,302463
11.2665,303278
11.2722,328838
11.2779,383953
11.2836,483830
11.2894,631790
11.2951,843016
11.3008,1066500
11.3065,1276261
11.3122,1475671
11.318,1634598
11.3237,1417884
11.3294,687925
11.3351,361284
11.3409,275276
11.3466,242525
11.3523,224229
11.358,216174
11.3637,207134
11.3695,209457
11.3752,213437
11.3809,210432
11.3866,199911
11.3923,194095
11.3981,180273
11.4038,176471
11.4095,172801
11.4152,170861
11.421,166962
11.4267,181073
11.4324,215955
11.4381,259153
11.4438,287324
11.4496,277966
11.4553,230444
11.461,179510
11.4667,146089
11.4725,127447
11.4782,124554
11.4839,120173
11.4896,119122
11.4953,121422
11.5011,118389
11.5068,114947
11.5125,116322
11.5182,111769
11.524,115294
11.5297,113072
11.5354,113488
11.5411,113778
11.5468,111137
11.5526,112868
11.5583,107667
11.564,108382
11.5697,109392
11.5755,108127
11.5812,103550
11.5869,105356
11.5926,104378
11.5983,104560
11.6041,104770
11.6098,104415
11.6155,105780
11.6212,103741
11.627,110421
11.6327,123683
11.6384,134255
11.6441,140607
11.6498,136083
11.6556,126838
11.6613,116534
11.667,110631
11.6727,104869
11.6784,102641
11.6842,97310
11.6899,96910
11.6956,96445
11.7013,94131
11.7071,92000
11.7128,88035
11.7185,93466
11.7242,88331
11.7299,88456
11.7357,84677
11.7414,84058
11.7471,84131
11.7528,80034
11.7586,83808
11.7643,83043
11.77,80051
11.7757,82977
11.7814,81635
11.7872,82923
11.7929,88555
11.7986,101816
11.8043,110120
11.8101,113010
11.8158,109223
11.8215,103081
11.8272,91228
11.8329,85319
11.8387,82630
11.8444,79830
11.8501,79748
11.8558,80433
11.8616,86295
11.8673,93588
11.873,109636
11.8787,127383
11.8844,125747
11.8902,118151
11.8959,100010
11.9016,93549
11.9073,86623
11.913,84785
11.9188,85230
11.9245,93420
11.9302,91296
11.9359,85875
11.9417,84301
11.9474,80369
11.9531,79344
11.9588,73899
11.9645,72462
11.9703,72493
11.976,75521
11.9817,80356
11.9874,83064
11.9932,83252
11.9989,82335
12.0046,79828
12.0103,79709
12.016,76217
12.0218,75372
12.0275,74840
12.0332,72871
12.0389,73675
12.0447,73497
12.0504,75120
12.0561,76786
12.0618,76076
12.0675,77475
12.0733,79122
12.079,84824
12.0847,86558
12.0904,83600
12.0962,83176
12.1019,77673
12.1076,76104
12.1133,76218
12.119,70587
12.1248,75189
12.1305,84688
12.1362,104202
12.1419,132144
12.1476,159041
12.1534,157776
12.1591,131292
12.1648,99709
12.1705,83238
12.1763,74155
12.182,73050
12.1877,72183
12.1934,70446
12.1991,69064
12.2049,70583
12.2106,69774
12.2163,68001
12.222,67891
12.2278,66324
12.2335,64734
12.2392,66131
12.2449,67088
12.2506,67989
12.2564,64745
12.2621,67710
12.2678,68328
12.2735,66150
12.2793,67561
12.285,63837
12.2907,65656
12.2964,63674
12.3021,65004
12.3079,64160
12.3136,65726
12.3193,64403
12.325,65649
12.3308,66545
12.3365,66303
12.3422,63700
12.3479,65334
12.3536,65444
12.3594,64835
12.3651,66773
12.3708,66366
12.3765,66334
12.3823,65361
12.388,63357
12.3937,64758
12.3994,64637
12.4051,65792
12.4109,64353
12.4166,64870
12.4223,65017
12.428,64691
12.4337,65974
12.4395,65579
12.4452,65310
12.4509,66998
12.4566,66444
12.4624,64545
12.4681,67910
12.4738,64990
12.4795,68173
12.4852,79050
12.491,106107
12.4967,148414
12.5024,194797
12.5081,216939
12.5139,200536
12.5196,169068
12.5253,123024
12.531,96822
12.5367,82075
12.5425,80132
12.5482,76889
12.5539,70762
12.5596,69185
12.5654,66272
12.5711,67768
12.5768,66360
12.5825,66454
12.5882,67730
12.594,64866
12.5997,62927
12.6054,65766
12.6111,61995
12.6169,60610
12.6226,61641
12.6283,62062
12.634,64319
12.6397,61906
12.6455,62193
12.6512,62256
12.6569,64292
12.6626,64236
12.6683,67070
12.6741,65755
12.6798,65419
12.6855,60786
12.6912,58057
12.697,60543
12.7027,58822
12.7084,60232
12.7141,62277
12.7198,60565
12.7256,60959
12.7313,63475
12.737,56941
12.7427,58488
12.7485,59014
12.7542,58105
12.7599,59743
12.7656,64118
12.7713,61986
12.7771,61434
12.7828,61325
12.7885,59284
12.7942,58646
12.8,58247
12.8057,58829
12.8114,58072
12.8171,58553
12.8228,59920
12.8286,58436
12.8343,55405
12.84,56640
12.8457,56943
12.8515,56028
12.8572,59931
12.8629,63382
12.8686,65088
12.8743,62748
12.8801,60766
12.8858,58910
12.8915,59260
12.8972,55630
12.9029,58203
12.9087,58485
12.9144,56471
12.9201,57351
12.9258,59142
12.9316,55652
12.9373,55671
12.943,56552
12.9487,55395
12.9544,59300
12.9602,60007
12.9659,62726
12.9716,62576
12.9773,60156
12.9831,58107
12.9888,59846
12.9945,60039
13.0002,59708
13.0059,64136
13.0117,73772
13.0174,86517
13.0231,97427
13.0288,93738
13.0346,80860
13.0403,66982
13.046,65005
13.0517,65642
13.0574,65956
13.0632,69333
13.0689,66259
13.0746,63275
13.0803,62155
13.0861,56558
13.0918,57327
13.0975,56698
13.1032,59222
13.1089,58851
13.1147,58483
13.1204,58310
13.1261,58604
13.1318,55171
13.1376,59134
13.1433,59754
13.149,64461
13.1547,73633
13.1604,80552
13.1662,88455
13.1719,92281
13.1776,88965
13.1833,78606
13.189,70088
13.1948,67413
13.2005,69791
13.2062,74027
13.2119,74406
13.2177,69244
13.2234,66991
13.2291,64825
13.2348,58991
13.2405,58675
13.2463,60802
13.252,60414
13.2577,62540
13.2634,62049
13.2692,61967
13.2749,62473
13.2806,61947
13.2863,67043
13.292,82186
13.2978,97328
13.3035,113917
13.3092,116442
13.3149,100437
13.3207,80963
13.3264,72306
13.3321,75866
13.3378,89474
13.3435,124605
13.3493,158037
13.355,168413
13.3607,147550
13.3664,118072
13.3722,91545
13.3779,87214
13.3836,88547
13.3893,88841
13.395,87728
13.4008,80532
13.4065,77326
13.4122,75007
13.4179,70165
13.4236,68086
13.4294,67366
13.4351,68484
13.4408,73110
13.4465,71479
13.4523,71125
13.458,70286
13.4637,70724
13.4694,74393
13.4751,90789
13.4809,125337
13.4866,165791
13.4923,207670
13.498,210632
13.5038,193555
13.5095,146298
13.5152,113112
13.5209,93796
13.5266,92916
13.5324,97341
13.5381,99912
13.5438,89869
13.5495,78112
13.5553,74690
13.561,70890
13.5667,69279
13.5724,68215
13.5781,66756
13.5839,70565
13.5896,68919
13.5953,67751
13.601,65829
13.6068,67481
13.6125,67404
13.6182,67310
13.6239,65858
13.6296,64738
13.6354,67468
13.6411,65876
13.6468,65963
13.6525,65689
13.6582,63548
13.664,64682
13.6697,64764
13.6754,65607
13.6811,66059
13.6869,63645
13.6926,63505
13.6983,64900
13.704,63953
13.7097,67784
13.7155,65969
13.7212,64145
13.7269,65128
13.7326,68447
13.7384,67296
13.7441,65188
13.7498,66447
13.7555,64251
13.7612,67588
13.767,72342
13.7727,79551
13.7784,79979
13.7841,79922
13.7899,79387
13.7956,72541
13.8013,72092
13.807,69390
13.8127,69752
13.8185,69649
13.8242,69998
13.8299,68660
13.8356,68432
13.8414,68615
13.8471,70270
13.8528,72791
13.8585,77747
13.8642,82542
13.87,93719
13.8757,100733
13.8814,95985
13.8871,92976
13.8929,84388
13.8986,83952
13.9043,81054
13.91,78735
13.9157,78458
13.9215,74058
13.9272,72915
13.9329,72500
13.9386,70869
13.9443,71743
13.9501,74162
13.9558,76250
13.9615,78950
13.9672,80599
13.973,83924
13.9787,86848
13.9844,85552
13.9901,87317
13.9958,91981
14.0016,93748
14.0073,97351
14.013,95460
14.0187,88701
14.0245,80552
14.0302,80106
14.0359,77305
14.0416,79186
14.0473,84277
14.0531,82060
14.0588,81824
14.0645,81797
14.0702,76485
14.076,75401
14.0817,75883
14.0874,75563
14.0931,75655
14.0988,78251
14.1046,74807
14.1103,76416
14.116,74413
14.1217,74075
14.1275,74593
14.1332,78329
14.1389,78169
14.1446,77587
14.1503,74878
14.1561,78638
14.1618,80312
14.1675,83749
14.1732,83737
14.1789,84568
14.1847,80568
14.1904,80860
14.1961,79613
14.2018,78609
14.2076,80894
14.2133,78089
14.219,83764
14.2247,80557
14.2304,77762
14.2362,81616
14.2419,80133
14.2476,80363
14.2533,78437
14.2591,81180
14.2648,77913
14.2705,79765
14.2762,78543
14.2819,81392
14.2877,77422
14.2934,81097
14.2991,79877
14.3048,81348
14.3106,79559
14.3163,79796
14.322,81902
14.3277,83628
14.3334,85419
14.3392,91188
14.3449,92283
14.3506,86515
14.3563,87063
14.3621,85415
14.3678,81877
14.3735,85746
14.3792,83324
14.3849,86583
14.3907,83534
14.3964,91141
14.4021,97533
14.4078,121717
14.4135,165957
14.4193,217752
14.425,254805
14.4307,250447
14.4364,206510
14.4422,159812
14.4479,140986
14.4536,134508
14.4593,142435
14.465,148314
14.4708,134234
14.4765,119651
14.4822,110315
14.4879,107139
14.4937,108029
14.4994,107056
14.5051,104961
14.5108,103352
14.5165,99540
14.5223,98302
14.528,92862
14.5337,91759
14.5394,92334
14.5452,91696
14.5509,92525
14.5566,94257
14.5623,96001
14.568,93218
14.5738,97206
14.5795,92817
14.5852,92540
14.5909,91813
14.5967,92989
14.6024,95930
14.6081,96815
14.6138,99289
14.6195,102546
14.6253,106882
14.631,108648
14.6367,109714
14.6424,103870
14.6482,100000
14.6539,99075
14.6596,100222
14.6653,97709
14.671,96516
14.6768,97011
14.6825,97890
14.6882,97797
14.6939,96139
14.6996,97130
14.7054,100405
14.7111,101733
14.7168,99804
14.7225,98761
14.7283,96738
14.734,99177
14.7397,97315
14.7454,97513
14.7511,102546
14.7569,100773
14.7626,98817
14.7683,96475
14.774,100294
14.7798,98627
14.7855,102427
14.7912,100286
14.7969,102762
14.8026,100293
14.8084,99710
14.8141,101475
14.8198,100120
14.8255,100399
14.8313,102899
14.837,101730
14.8427,101997
14.8484,98554
14.8541,103666
14.8599,103532
14.8656,102648
14.8713,104599
14.877,103323
14.8828,109021
14.8885,102288
14.8942,108059
14.8999,105296
14.9056,108153
14.9114,104867
14.9171,105028
14.9228,105088
14.9285,105919
14.9342,110722
14.94,107500
14.9457,110898
14.9514,109769
14.9571,108070
14.9629,106616
14.9686,110237
14.9743,113196
14.98,108278
14.9857,115689
14.9915,115260
14.9972,117367
15.0029,112271
15.0086,113621
15.0144,115487
15.0201,111614
15.0258,114286
15.0315,113871
15.0372,112415
15.043,109871
15.0487,112757
15.0544,111921
15.0601,116694
15.0659,112397
15.0716,115597
15.0773,112986
15.083,115680
15.0887,115174
15.0945,114941
15.1002,115163
15.1059,115804
15.1116,118557
15.1174,116162
15.1231,120319
15.1288,117563
15.1345,116328
15.1402,120926
15.146,124358
15.1517,119827
15.1574,116318
15.1631,122900
15.1689,116661
15.1746,121296
15.1803,122396
15.186,123316
15.1917,118861
15.1975,123932
15.2032,120674
15.2089,121456
15.2146,119557
15.2203,122378
15.2261,121803
15.2318,121711
15.2375,123876
15.2432,123104
15.249,124299
15.2547,124803
15.2604,131895
15.2661,130234
15.2718,132706
15.2776,155334
15.2833,181810
15.289,235223
15.2947,276513
15.3005,294235
15.3062,276043
15.3119,233173
15.3176,192991
15.3233,162585
15.3291,146006
15.3348,140910
15.3405,139687
15.3462,139859
15.352,137759
15.3577,138700
15.3634,142333
15.3691,144956
15.3748,145367
15.3806,143699
15.3863,144322
15.392,140027
15.3977,143370
15.4035,145907
15.4092,151575
15.4149,150593
15.4206,148249
15.4263,141543
15.4321,140385
15.4378,141915
15.4435,138576
15.4492,142085
15.4549,142968
15.4607,141670
15.4664,142191
15.4721,142229
15.4778,141489
15.4836,148581
15.4893,148701
15.495,142377
15.5007,144915
15.5064,147306
15.5122,147934
15.5179,148663
15.5236,147051
15.5293,148611
15.5351,147558
15.5408,146583
15.5465,146105
15.5522,146461
15.5579,148410
15.5637,150318
15.5694,151734
15.5751,152411
15.5808,153019
15.5866,153027
15.5923,155009
15.598,152947
15.6037,154034
15.6094,153303
15.6152,148991
15.6209,153394
15.6266,151189
15.6323,154724
15.6381,157647
15.6438,155108
15.6495,160322
15.6552,157774
15.6609,157706
15.6667,153131
15.6724,156114
15.6781,163521
15.6838,161276
15.6895,162950
15.6953,162255
15.701,160416
15.7067,163184
15.7124,163004
15.7182,164398
15.7239,159361
15.7296,161245
15.7353,163764
15.741,166098
15.7468,163785
15.7525,162411
15.7582,167770
15.7639,174189
15.7697,165816
15.7754,167021
15.7811,169025
15.7868,170382
15.7925,172958
15.7983,169828
15.804,175492
15.8097,174739
15.8154,168667
15.8212,171923
15.8269,177044
15.8326,173221
15.8383,172270
15.844,177478
15.8498,176839
15.8555,176968
15.8612,175176
15.8669,178063
15.8727,183602
15.8784,183841
15.8841,181129
15.8898,181107
15.8955,180744
15.9013,178739
15.907,186211
15.9127,179632
15.9184,186815
15.9242,190292
15.9299,194652
15.9356,190603
15.9413,200017
15.947,207169
15.9528,210021
15.9585,208481
15.9642,200931
15.9699,199207
15.9756,190177
15.9814,189340
15.9871,190806
15.9928,187632
15.9985,185906
16.0042,193140
16.01,189149
16.0157,195755
16.0214,195747
16.0271,198925
16.0329,198653
16.0386,198460
16.0443,197646
16.05,197908
16.0558,208142
16.0615,207318
16.0672,210622
16.0729,212574
16.0786,205685
16.0844,207063
16.0901,220333
16.0958,247871
16.1015,280525
16.1073,325349
16.113,364164
16.1187,362117
16.1244,356258
16.1301,362385
16.1359,382724
16.1416,410997
16.1473,392733
16.153,345800
16.1588,286514
16.1645,246337
16.1702,230736
16.1759,225103
16.1816,223255
16.1873,223036
16.1931,225751
16.1988,221905
16.2045,222323
16.2102,222427
16.216,218688
16.2217,220141
16.2274,227012
16.2331,222693
16.2388,219867
16.2446,219540
16.2503,220397
16.256,224181
16.2617,225294
16.2675,225765
16.2732,227707
16.2789,223171
16.2846,228064
16.2904,230761
16.2961,223222
16.3018,232551
16.3075,231810
16.3132,231774
16.319,233268
16.3247,230018
16.3304,233937
16.3361,228958
16.3419,239116
16.3476,236505
16.3533,235366
16.359,235968
16.3647,235962
16.3705,235254
16.3762,238869
16.3819,238675
16.3876,244484
16.3934,243103
16.3991,244901
16.4048,242255
16.4105,242447
16.4162,244780
16.4219,249039
16.4277,248393
16.4334,250201
16.4391,245190
16.4448,249940
16.4506,256257
16.4563,253567
16.462,254166
16.4677,249860
16.4735,253593
16.4792,252561
16.4849,253930
16.4906,256687
16.4963,253696
16.5021,256372
16.5078,255702
16.5135,254932
16.5192,256106
16.525,256493
16.5307,254651
16.5364,261172
16.5421,259233
16.5478,261607
16.5536,261175
16.5593,268934
16.565,263774
16.5707,267654
16.5765,267016
16.5822,270874
16.5879,269403
16.5936,269347
16.5993,266741
16.605,270716
16.6108,267600
16.6165,270427
16.6222,271395
16.6279,270914
16.6337,271242
16.6394,278625
16.6451,272395
16.6508,274124
16.6565,275861
16.6623,271789
16.668,276305
16.6737,279399
16.6794,281898
16.6852,280139
16.6909,284449
16.6966,282741
16.7023,284965
16.7081,288365
16.7138,285099
16.7195,288025
16.7252,286254
16.7309,293350
16.7367,287306
16.7424,288845
16.7481,292361
16.7538,294953
16.7596,294589
16.7653,292072
16.771,292540
16.7767,293389
16.7824,293230
16.7882,294803
16.7939,293100
16.7996,294266
16.8053,299239
16.8111,305948
16.8168,299923
16.8225,302546
16.8282,305818
16.8339,300481
16.8396,310485
16.8454,305674
16.8511,317398
16.8568,338796
16.8625,369672
16.8683,412973
16.874,443225
16.8797,439696
16.8854,412116
16.8912,372400
16.8969,344762
16.9026,327636
16.9083,321271
16.9141,315621
16.9198,313278
16.9255,315866
16.9312,318968
16.9369,324907
16.9427,323631
16.9484,326884
16.9541,320670
16.9598,323174
16.9655,317692
16.9713,323942
16.977,323833
16.9827,321372
16.9884,326497
16.9942,324298
16.9999,329866
17.0056,332464
17.0113,329070
17.017,332031
17.0228,329684
17.0285,335973
17.0342,335120
17.0399,337765
17.0456,339207
17.0514,339232
17.0571,336449
17.0628,339760
17.0685,337288
17.0742,344004
17.08,346150
17.0857,344592
17.0914,342699
17.0971,347255
17.1029,341322
17.1086,342570
17.1143,344910
17.12,350388
17.1258,357437
17.1315,352020
17.1372,350637
17.1429,355725
17.1487,355578
17.1544,355163
17.1601,356947
17.1658,362935
17.1715,361098
17.1773,363210
17.183,360640
17.1887,358678
17.1944,363093
17.2001,365405
17.2059,360866
17.2116,363602
17.2173,364884
17.223,367852
17.2288,381983
17.2345,372132
17.2402,377070
17.2459,374359
17.2516,376767
17.2574,374441
17.2631,376270
17.2688,377401
17.2745,372957
17.2802,378520
17.286,380135
17.2917,383812
17.2974,385885
17.3031,386999
17.3089,389386
17.3146,382473
17.3203,391979
17.326,388253
17.3318,389563
17.3375,395752
17.3432,401184
17.3489,390733
17.3546,391434
17.3604,405176
17.3661,394871
17.3718,402592
17.3775,396872
17.3833,407965
17.389,405793
17.3947,409491
17.4004,412717
17.4061,416366
17.4119,415824
17.4176,409965
17.4233,417465
17.429,420000
17.4348,422818
17.4405,421188
17.4462,423933
17.4519,422962
17.4576,425511
17.4633,420682
17.4691,428986
17.4748,424794
17.4805,426459
17.4862,434550
17.492,437414
17.4977,439705
17.5034,441073
17.5091,437338
17.5148,445888
17.5206,438316
17.5263,439017
17.532,440695
17.5377,441405
17.5435,444591
17.5492,444298
17.5549,446355
17.5606,448707
17.5664,468278
17.5721,487345
17.5778,512829
17.5835,532775
17.5892,551103
17.595,540140
17.6007,519434
17.6064,500667
17.6121,479432
17.6179,468563
17.6236,464486
17.6293,470816
17.635,472768
17.6407,466146
17.6465,474615
17.6522,471470
17.6579,469644
17.6636,472659
17.6694,473667
17.6751,473139
17.6808,475393
17.6865,467069
17.6922,460929
17.698,468755
17.7037,477293
17.7094,473698
17.7151,479795
17.7208,474244
17.7266,478222
17.7323,475550
17.738,471222
17.7437,472371
17.7495,479390
17.7552,485182
17.7609,478688
17.7666,480145
17.7723,491443
17.7781,487893
17.7838,482577
17.7895,477922
17.7952,482279
17.801,486032
17.8067,488838
17.8124,487920
17.8181,479098
17.8238,482665
17.8296,490386
17.8353,485352
17.841,483038
17.8467,489457
17.8525,496392
17.8582,497706
17.8639,484190
17.8696,489635
17.8753,491371
17.8811,491199
17.8868,485683
17.8925,488498
17.8982,487349
17.904,488438
17.9097,490186
17.9154,492487
17.9211,486669
17.9268,497654
17.9325,496908
17.9383,499485
17.944,496535
17.9497,490931
17.9554,489298
17.9612,499082
17.9669,492687
17.9726,503895
17.9783,499169
17.9841,497526
17.9898,500790
17.9955,495289
18.0012,495350
18.0069,494992
18.0127,492046
18.0184,498353
18.0241,488912
18.0298,497307
18.0356,501517
18.0413,490716
18.047,497532
18.0527,495609
18.0584,494200
18.0642,491450
18.0699,490525
18.0756,486153
18.0813,498612
18.0871,492385
18.0928,503766
18.0985,503816
18.1042,506134
18.1099,506218
18.1157,501237
18.1214,498167
18.1271,501755
18.1328,501094
18.1386,504582
18.1443,502490
18.15,506100
18.1557,496436
18.1614,505413
18.1671,511603
18.1729,499205
18.1786,505934
18.1843,498243
18.19,494469
18.1958,501865
18.2015,502103
18.2072,499388
18.2129,502145
18.2187,508420
18.2244,502855
18.2301,509514
18.2358,499502
18.2415,505971
18.2473,511303
18.253,500556
18.2587,505851
18.2644,503498
18.2702,508876
18.2759,505007
18.2816,507763
18.2873,510257
18.293,513100
18.2988,515633
18.3045,521928
18.3102,522773
18.3159,539665
18.3217,543976
18.3274,551041
18.3331,558179
18.3388,558807
18.3445,541959
18.3503,535464
18.356,529062
18.3617,522490
18.3674,513209
18.3732,502988
18.3789,515645
18.3846,516292
18.3903,512292
18.396,512652
18.4018,519767
18.4075,518230
18.4132,510247
18.4189,508027
18.4247,514615
18.4304,521419
18.4361,520797
18.4418,517512
18.4475,516435
18.4533,520063
18.459,511893
18.4647,513300
18.4704,522026
18.4761,512398
18.4819,515561
18.4876,514714
18.4933,514133
18.499,513490
18.5048,514129
18.5105,512627
18.5162,513228
18.5219,516117
18.5276,515369
18.5334,513116
18.5391,522161
18.5448,520258
18.5505,522786
18.5563,516312
18.562,523845
18.5677,526246
18.5734,525252
18.5791,521873
18.5848,521084
18.5906,514854
18.5963,520044
18.602,516176
18.6077,523904
18.6135,522020
18.6192,525304
18.6249,528318
18.6306,525758
18.6364,522100
18.6421,524111
18.6478,527430
18.6535,524521
18.6593,529602
18.665,529017
18.6707,523086
18.6764,523986
18.6821,524758
18.6879,526547
18.6936,527812
18.6993,524436
18.705,525646
18.7107,524158
18.7165,527140
18.7222,525156
18.7279,528398
18.7336,525250
18.7394,524033
18.7451,525588
18.7508,527977
18.7565,531423
18.7622,532243
18.768,523651
18.7737,531311
18.7794,527740
18.7851,523642
18.7909,526385
18.7966,527587
18.8023,523180
18.808,527724
18.8137,523476
18.8195,527652
18.8252,516504
18.8309,521281
18.8366,525247
18.8424,526989
18.8481,518193
18.8538,521038
18.8595,521097
18.8652,524839
18.871,518637
18.8767,525354
18.8824,524243
18.8881,526866
18.8939,514169
18.8996,529366
18.9053,531350
18.911,534509
18.9167,530044
18.9225,528568
18.9282,535749
18.9339,531233
18.9396,527958
18.9454,520283
18.9511,533047
18.9568,533618
18.9625,527510
18.9682,521771
18.974,525924
18.9797,517206
18.9854,527815
18.9911,521717
18.9968,528608
19.0026,523928
19.0083,522158
19.014,524161
19.0197,530151
19.0254,523273
19.0312,521755
19.0369,528942
19.0426,521787
19.0483,526172
19.0541,517103
19.0598,521369
19.0655,522740
19.0712,521370
19.077,521603
19.0827,527861
19.0884,523530
19.0941,527794
19.0998,524339
19.1056,523708
19.1113,529540
19.117,530240
19.1227,523102
19.1285,515484
19.1342,525718
19.1399,532126
19.1456,527778
19.1513,543364
19.1571,545146
19.1628,547394
19.1685,554530
19.1742,559199
19.18,554871
19.1857,563036
19.1914,556875
19.1971,549175
19.2028,545892
19.2086,556086
19.2143,546105
19.22,534977
19.2257,532454
19.2314,535910
19.2372,530786
19.2429,528938
19.2486,522739
19.2543,528845
19.2601,526067
19.2658,531106
19.2715,534587
19.2772,531339
19.2829,528197
19.2887,532144
19.2944,524518
19.3001,520159
19.3058,518461
19.3116,521038
19.3173,530534
19.323,532961
19.3287,535164
19.3344,534708
19.3402,531795
19.3459,527676
19.3516,535969
19.3573,536200
19.3631,536151
19.3688,531111
19.3745,535113
19.3802,530694
19.3859,531349
19.3917,530613
19.3974,527003
19.4031,531956
19.4088,532977
19.4146,530510
19.4203,528872
19.426,528299
19.4317,535647
19.4374,531116
19.4431,531175
19.4489,534906
19.4546,531293
19.4603,538536
19.466,527724
19.4718,532966
19.4775,537948
19.4832,536855
19.4889,531536
19.4947,527180
19.5004,532822
19.5061,534805
19.5118,533108
19.5175,534946
19.5233,533806
19.529,541638
19.5347,524522
19.5404,533378
19.5462,525840
19.5519,528425
19.5576,527262
19.5633,534280
19.569,532570
19.5748,532593
19.5805,539299
19.5862,535364
19.5919,536108
19.5977,533037
19.6034,542562
19.6091,536813
19.6148,531678
19.6205,535863
19.6263,537601
19.632,540317
19.6377,535863
19.6434,538272
19.6492,532496
19.6549,547165
19.6606,538629
19.6663,543804
19.672,539113
19.6778,542104
19.6835,537807
19.6892,540337
19.6949,531506
19.7007,535644
19.7064,537354
19.7121,550864
19.7178,547434
19.7235,543831
19.7293,542819
19.735,540523
19.7407,544455
19.7464,544355
19.7521,541084
19.7579,535164
19.7636,529553
19.7693,543367
19.775,539119
19.7808,540254
19.7865,540409
19.7922,551251
19.7979,542948
19.8036,545246
19.8094,546828
19.8151,541334
19.8208,544151
19.8265,548271
19.8323,548308
19.838,546424
19.8437,550402
19.8494,546467
19.8551,547630
19.8608,549552
19.8666,549465
19.8723,547390
19.878,542826
19.8838,544045
19.8895,547042
19.8952,551743
19.9009,541281
19.9066,542910
19.9124,551058
19.9181,542622
19.9238,541591
19.9295,541908
19.9353,534683
19.941,549993
19.9467,546768
19.9524,543745
19.9581,542609
19.9639,546072
19.9696,553788
19.9753,544040
19.981,552710
19.9867,553911
19.9925,546744
19.9982,551891
20.0039,544150
20.0096,546571
20.0154,553945
20.0211,543112
20.0268,546543
20.0325,546743
20.0382,544247
20.044,540849
20.0497,541290
20.0554,546041
20.0611,545489
20.0669,547023
20.0726,530467
20.0783,537400
20.084,547542
20.0897,550421
20.0955,536191
20.1012,536630
20.1069,539401
20.1126,548763
20.1184,546956
20.1241,542402
20.1298,546706
20.1355,548336
20.1412,546419
20.147,546572
20.1527,545414
20.1584,552631
20.1641,556586
20.1699,550433
20.1756,556409
20.1813,558476
20.187,548538
20.1927,548575
20.1985,550748
20.2042,553014
20.2099,559724
20.2156,557517
20.2214,554768
20.2271,557533
20.2328,552447
20.2385,546995
20.2442,551495
20.25,547363
20.2557,539776
20.2614,545588
20.2671,546253
20.2728,552273
20.2786,553695
20.2843,551350
20.29,546735
20.2957,555854
20.3015,559551
20.3072,557457
20.3129,559034
20.3186,560530
20.3243,553699
20.3301,559259
20.3358,549559
20.3415,555270
20.3472,561214
20.353,558401
20.3587,558289
20.3644,557887
20.3701,559525
20.3758,552631
20.3816,562832
20.3873,557641
20.393,567305
20.3987,559128
20.4045,561133
20.4102,567722
20.4159,555458
20.4216,558831
20.4273,564136
20.4331,560495
20.4388,564629
20.4445,564102
20.4502,574261
20.456,563525
20.4617,573914
20.4674,567504
20.4731,565922
20.4788,572378
20.4846,563433
20.4903,563649
