C:\MSDCHEM\1\DATA\SERINA\20170928 LACTONE_STD_CURVE\11.d 28 Sep 17   6:37 pm
Start of data points
5.09262,105817
5.09833,109063
5.10407,110058
5.10978,111226
5.1155,107095
5.12123,110695
5.12695,113718
5.13267,112277
5.1384,113775
5.14412,113655
5.14983,119462
5.15557,117280
5.16128,119125
5.167,113920
5.17273,114938
5.17845,112128
5.18417,115739
5.18988,111186
5.19562,110691
5.20133,108049
5.20705,107691
5.21278,103387
5.2185,97846
5.22422,95292
5.22995,93113
5.23567,91034
5.24138,87519
5.24712,85186
5.25283,84135
5.25855,82418
5.26428,77318
5.27,74422
5.27572,73634
5.28145,71836
5.28717,72590
5.29288,70289
5.29862,71026
5.30433,66792
5.31005,66654
5.31577,68602
5.3215,64772
5.32722,63368
5.33293,64644
5.33867,62436
5.34438,58845
5.3501,62249
5.35583,62651
5.36155,61305
5.36727,61377
5.373,62394
5.37872,60672
5.38443,62087
5.39017,60047
5.39588,60132
5.4016,61622
5.40733,60312
5.41305,58343
5.41877,58737
5.4245,56441
5.43022,55636
5.43593,55963
5.44165,57435
5.44738,55870
5.4531,58012
5.45882,56311
5.46455,57554
5.47027,56695
5.47598,53781
5.48172,54167
5.48743,53476
5.49315,53965
5.49888,54780
5.5046,52317
5.51032,55786
5.51605,54148
5.52177,56244
5.52748,52853
5.53322,54794
5.53893,53089
5.54465,53193
5.55038,54177
5.5561,53780
5.56182,51471
5.56753,52035
5.57327,51433
5.57898,51890
5.5847,52714
5.59043,53932
5.59615,53292
5.60187,51698
5.6076,51579
5.61332,48593
5.61903,49046
5.62477,50842
5.63048,52680
5.6362,49860
5.64193,49373
5.64765,50752
5.65337,49377
5.6591,49212
5.66482,49659
5.67053,49067
5.67627,49312
5.68198,49946
5.6877,47537
5.69342,47691
5.69915,51344
5.70487,48592
5.71058,50012
5.71632,48236
5.72203,50263
5.72775,45872
5.73348,46739
5.7392,47685
5.74492,50613
5.75065,48856
5.75637,47942
5.76208,48498
5.76782,46762
5.77353,46204
5.77925,46358
5.78498,46112
5.7907,45948
5.79642,44998
5.80215,45449
5.80787,48405
5.81358,46203
5.8193,47489
5.82503,46349
5.83075,47923
5.83647,47543
5.8422,46596
5.84792,47133
5.85363,49814
5.85937,47840
5.86508,47610
5.8708,46264
5.87653,46071
5.88225,44289
5.88797,44069
5.8937,46534
5.89942,44379
5.90513,44749
5.91087,43088
5.91658,43383
5.9223,45466
5.92803,44570
5.93375,42630
5.93947,44701
5.94518,43304
5.95092,44019
5.95663,42061
5.96235,42201
5.96808,45270
5.9738,41926
5.97952,41789
5.98525,43056
5.99097,40607
5.99668,43262
6.00242,44126
6.00813,42676
6.01385,44015
6.01958,42437
6.0253,42022
6.03102,43286
6.03675,40298
6.04247,41911
6.04818,42125
6.05392,41902
6.05963,42915
6.06535,43687
6.07107,40006
6.0768,39649
6.08252,42855
6.08823,41548
6.09397,39762
6.09968,40337
6.1054,40570
6.11113,39848
6.11685,39309
6.12257,39781
6.1283,41601
6.13402,39585
6.13973,39052
6.14547,38898
6.15118,40606
6.1569,39008
6.16263,35879
6.16835,38794
6.17407,40780
6.1798,39317
6.18552,39667
6.19123,39672
6.19695,39351
6.20268,40508
6.2084,38945
6.21412,39086
6.21985,39172
6.22557,40266
6.23128,38899
6.23702,39818
6.24273,37637
6.24845,39017
6.25418,37852
6.2599,39866
6.26562,39635
6.27135,40297
6.27707,38107
6.28278,37784
6.28852,38603
6.29423,38444
6.29995,40542
6.30568,37787
6.3114,36735
6.31712,36321
6.32283,37888
6.32857,37751
6.33428,38794
6.34,35839
6.34573,39291
6.35145,37507
6.35717,38759
6.3629,37344
6.36862,37550
6.37433,37222
6.38007,38599
6.38578,38083
6.3915,37958
6.39723,38309
6.40295,37491
6.40867,40030
6.4144,37959
6.42012,36954
6.42583,37958
6.43157,37340
6.43728,35921
6.443,35868
6.44872,34933
6.45445,37559
6.46017,35390
6.46588,37985
6.47162,35378
6.47733,35583
6.48305,35284
6.48878,37196
6.4945,35824
6.50022,36025
6.50595,37818
6.51167,35940
6.51738,39206
6.52312,37766
6.52883,37689
6.53455,35285
6.54028,36585
6.546,37381
6.55172,36797
6.55745,35457
6.56317,38395
6.56888,36912
6.5746,34755
6.58033,37928
6.58605,36600
6.59177,36391
6.5975,34445
6.60322,35632
6.60893,34025
6.61467,37089
6.62038,36632
6.6261,35359
6.63183,35529
6.63755,34860
6.64327,34880
6.649,35489
6.65472,36264
6.66043,35492
6.66617,35131
6.67188,34248
6.6776,36598
6.68333,35027
6.68905,34290
6.69477,33325
6.70048,34965
6.70622,34982
6.71193,33919
6.71765,33789
6.72338,34225
6.7291,34487
6.73482,35968
6.74055,34831
6.74627,37159
6.75198,33155
6.75772,34805
6.76343,34055
6.76915,34942
6.77488,34954
6.7806,33355
6.78632,35357
6.79205,35140
6.79777,32773
6.80348,34799
6.80922,33796
6.81493,32394
6.82065,35087
6.82638,35476
6.8321,33567
6.83782,33121
6.84353,33958
6.84927,34678
6.85498,33757
6.8607,33619
6.86643,34799
6.87215,33722
6.87787,33746
6.8836,35561
6.88932,33765
6.89503,34143
6.90077,31980
6.90648,34110
6.9122,31896
6.91793,34230
6.92365,33772
6.92937,32059
6.9351,33353
6.94082,32589
6.94653,32756
6.95227,33749
6.95798,33844
6.9637,33886
6.96942,33544
6.97515,31786
6.98087,33355
6.98658,34939
6.99232,34481
6.99803,34452
7.00375,33977
7.00948,33852
7.0152,34759
7.02092,35417
7.02665,32349
7.03237,32676
7.03808,34200
7.04382,34262
7.04953,34852
7.05525,34738
7.06098,32753
7.0667,33839
7.07242,33487
7.07815,29666
7.08387,31902
7.08958,33162
7.0953,32247
7.10103,33458
7.10675,33156
7.11247,32404
7.1182,34278
7.12392,32474
7.12963,32526
7.13537,32176
7.14108,32307
7.1468,31757
7.15253,31116
7.15825,30833
7.16397,32924
7.1697,31920
7.17542,32279
7.18113,32705
7.18687,34045
7.19258,33934
7.1983,33175
7.20403,33133
7.20975,31764
7.21547,31291
7.22118,32377
7.22692,31870
7.23263,31942
7.23835,33311
7.24408,31667
7.2498,33009
7.25552,31193
7.26125,32144
7.26697,33646
7.27268,31949
7.27842,32805
7.28413,32784
7.28985,32808
7.29558,31492
7.3013,32236
7.30702,33673
7.31275,31572
7.31847,33512
7.32418,31327
7.32992,31553
7.33563,31422
7.34135,31681
7.34707,33472
7.3528,31574
7.35852,32256
7.36423,32856
7.36997,31391
7.37568,30693
7.3814,31332
7.38713,32731
7.39285,33011
7.39857,32731
7.4043,33083
7.41002,32085
7.41573,32532
7.42147,33571
7.42718,31657
7.4329,32280
7.43863,33202
7.44435,30688
7.45007,31921
7.4558,31188
7.46152,31291
7.46723,31634
7.47295,33079
7.47868,31564
7.4844,34375
7.49012,32753
7.49585,32332
7.50157,30945
7.50728,31952
7.51302,32842
7.51873,30729
7.52445,32450
7.53018,32976
7.5359,29769
7.54162,30814
7.54735,31200
7.55307,31866
7.55878,31830
7.56452,30321
7.57023,31580
7.57595,30596
7.58168,33033
7.5874,32567
7.59312,32427
7.59883,31851
7.60457,30559
7.61028,30392
7.616,31847
7.62173,29971
7.62745,33685
7.63317,30458
7.6389,31092
7.64462,30749
7.65033,32543
7.65607,31842
7.66178,33300
7.6675,32868
7.67323,32480
7.67895,31132
7.68467,31569
7.6904,28938
7.69612,30291
7.70183,32556
7.70757,30973
7.71328,31149
7.719,31040
7.72472,28960
7.73045,31951
7.73617,31529
7.74188,31406
7.74762,30937
7.75333,32054
7.75905,30607
7.76478,32599
7.7705,30662
7.77622,29598
7.78195,31113
7.78767,31697
7.79338,30552
7.79912,30040
7.80483,28959
7.81055,29692
7.81628,30822
7.822,30041
7.82772,29776
7.83345,31098
7.83917,30167
7.84488,30617
7.8506,32264
7.85633,30249
7.86205,31544
7.86777,29960
7.8735,31555
7.87922,29915
7.88493,30258
7.89067,30449
7.89638,31024
7.9021,30235
7.90783,31729
7.91355,30015
7.91927,31098
7.925,30042
7.93072,29352
7.93643,32601
7.94217,29708
7.94788,33463
7.9536,30409
7.95933,30597
7.96505,30290
7.97077,31906
7.97648,29048
7.98222,32352
7.98793,30100
7.99365,28437
7.99938,30506
8.0051,31092
8.01082,30599
8.01655,30527
8.02227,31609
8.02798,30571
8.03372,32371
8.03943,31719
8.04515,31058
8.05088,30752
8.0566,32191
8.06232,31319
8.06805,30545
8.07377,29300
8.07948,30139
8.08522,30203
8.09093,30574
8.09665,29969
8.10237,29946
8.1081,31717
8.11382,30925
8.11953,30353
8.12527,30119
8.13098,30315
8.1367,31637
8.14243,29673
8.14815,30513
8.15387,32984
8.1596,30971
8.16532,31851
8.17103,30457
8.17677,28808
8.18248,29916
8.1882,30059
8.19393,31980
8.19965,32850
8.20537,30356
8.2111,30596
8.21682,32786
8.22253,29315
8.22825,30284
8.23398,30982
8.2397,30971
8.24542,30612
8.25115,31317
8.25687,30680
8.26258,30032
8.26832,29523
8.27403,30018
8.27975,31435
8.28548,29905
8.2912,29338
8.29692,30539
8.30265,29859
8.30837,31409
8.31408,30799
8.31982,29964
8.32553,30564
8.33125,30702
8.33698,29398
8.3427,31034
8.34842,30369
8.35413,29229
8.35987,29527
8.36558,31698
8.3713,29038
8.37703,28694
8.38275,30651
8.38847,29153
8.3942,30262
8.39992,30912
8.40563,29069
8.41137,29519
8.41708,28773
8.4228,28249
8.42853,30373
8.43425,28875
8.43997,29497
8.4457,30056
8.45142,30058
8.45713,30301
8.46287,30172
8.46858,28930
8.4743,29652
8.48002,30005
8.48575,31766
8.49147,30071
8.49718,29969
8.50292,30907
8.50863,26674
8.51435,29173
8.52008,31171
8.5258,28375
8.53152,29327
8.53725,28967
8.54297,29402
8.54868,30835
8.55442,29477
8.56013,30725
8.56585,29760
8.57158,29552
8.5773,29662
8.58302,29553
8.58875,29034
8.59447,28075
8.60018,29402
8.6059,28758
8.61163,27295
8.61735,27551
8.62307,29094
8.6288,30031
8.63452,28133
8.64023,30543
8.64597,28750
8.65168,28064
8.6574,28715
8.66313,29705
8.66885,29750
8.67457,29462
8.6803,28485
8.68602,29109
8.69173,29153
8.69747,28895
8.70318,27116
8.7089,30227
8.71463,28470
8.72035,29734
8.72607,28597
8.73178,28735
8.73752,28408
8.74323,29998
8.74895,27061
8.75468,30693
8.7604,28782
8.76612,29799
8.77185,28516
8.77757,28444
8.78328,28208
8.78902,29686
8.79473,29765
8.80045,29614
8.80618,30135
8.8119,28851
8.81762,28400
8.82335,29472
8.82907,28099
8.83478,29738
8.84052,27967
8.84623,28480
8.85195,28566
8.85767,29465
8.8634,29652
8.86912,29332
8.87483,30514
8.88057,27617
8.88628,31633
8.892,29864
8.89773,28729
8.90345,30917
8.90917,28625
8.9149,29878
8.92062,29133
8.92633,30347
8.93207,28732
8.93778,29080
8.9435,28657
8.94923,29532
8.95495,27972
8.96067,30137
8.9664,30134
8.97212,30686
8.97783,31722
8.98355,32036
8.98928,30784
8.995,28543
9.00072,29343
9.00645,29160
9.01217,28104
9.01788,28819
9.02362,28719
9.02933,28959
9.03505,30623
9.04078,29336
9.0465,30230
9.05222,29215
9.05795,28282
9.06367,26437
9.06938,28981
9.07512,29668
9.08083,29917
9.08655,29655
9.09228,28070
9.098,29176
9.10372,28790
9.10943,29644
9.11517,29471
9.12088,27494
9.1266,28777
9.13233,31028
9.13805,36363
9.14377,49812
9.1495,73018
9.15522,89693
9.16093,93341
9.16667,75265
9.17238,53296
9.1781,39630
9.18383,34501
9.18955,31232
9.19527,31647
9.201,33018
9.20672,34599
9.21243,31728
9.21817,32297
9.22388,28821
9.2296,28873
9.23532,29454
9.24105,27723
9.24677,30013
9.25248,28478
9.25822,30759
9.26393,31632
9.26965,28760
9.27538,28844
9.2811,30436
9.28682,27228
9.29255,29364
9.29827,29653
9.30398,28585
9.30972,30053
9.31543,28571
9.32115,29985
9.32688,28543
9.3326,28178
9.33832,29326
9.34405,30471
9.34977,28730
9.35548,29624
9.3612,30183
9.36693,31891
9.37265,29398
9.37837,30638
9.3841,28973
9.38982,29486
9.39553,30524
9.40127,29095
9.40698,28561
9.4127,29028
9.41843,29431
9.42415,27415
9.42987,30264
9.4356,28063
9.44132,29263
9.44703,31197
9.45277,30891
9.45848,29266
9.4642,29723
9.46993,29413
9.47565,30124
9.48137,29047
9.48708,29325
9.49282,30608
9.49853,30381
9.50425,29785
9.50998,30637
9.5157,30209
9.52142,31315
9.52715,30395
9.53287,29898
9.53858,28945
9.54432,29977
9.55003,31385
9.55575,31241
9.56148,33197
9.5672,30687
9.57292,30846
9.57865,30955
9.58437,31735
9.59008,31306
9.59582,30353
9.60153,31742
9.60725,31666
9.61297,31592
9.6187,32965
9.62442,29257
9.63013,31497
9.63587,32008
9.64158,31703
9.6473,30487
9.65303,32232
9.65875,30024
9.66447,32053
9.6702,31317
9.67592,32732
9.68163,31126
9.68737,30906
9.69308,31841
9.6988,36261
9.70453,41466
9.71025,47363
9.71597,50603
9.7217,51899
9.72742,51396
9.73313,45844
9.73885,47416
9.74458,45661
9.7503,50628
9.75602,54755
9.76175,55107
9.76747,55478
9.77318,53821
9.77892,54256
9.78463,54279
9.79035,50769
9.79608,48900
9.8018,49019
9.80752,44088
9.81325,47146
9.81897,45270
9.82468,42646
9.83042,40035
9.83613,40754
9.84185,43763
9.84758,40382
9.8533,40737
9.85902,39526
9.86473,39722
9.87047,38889
9.87618,38173
9.8819,37561
9.88763,37797
9.89335,36575
9.89907,35874
9.9048,35397
9.91052,35766
9.91623,36437
9.92197,36838
9.92768,37474
9.9334,35542
9.93913,36246
9.94485,34919
9.95057,37090
9.9563,35749
9.96202,37042
9.96773,33264
9.97347,35602
9.97918,35828
9.9849,35547
9.99062,35337
9.99635,35536
10.0021,34771
10.0078,36162
10.0135,35062
10.0192,36114
10.025,35066
10.0307,35953
10.0364,33791
10.0421,35610
10.0479,35401
10.0536,34896
10.0593,36193
10.065,32459
10.0707,33476
10.0765,35775
10.0822,33662
10.0879,34706
10.0936,34288
10.0994,33700
10.1051,35979
10.1108,33190
10.1165,33111
10.1222,34232
10.128,35798
10.1337,34903
10.1394,33477
10.1451,34931
10.1508,32539
10.1566,35004
10.1623,33255
10.168,34760
10.1737,33775
10.1795,32960
10.1852,33037
10.1909,33511
10.1966,33508
10.2023,30474
10.2081,33260
10.2138,34183
10.2195,33804
10.2252,34214
10.231,33504
10.2367,33353
10.2424,31996
10.2481,33471
10.2538,34625
10.2596,31459
10.2653,31595
10.271,33579
10.2767,32748
10.2825,34125
10.2882,31929
10.2939,33314
10.2996,33597
10.3053,32547
10.3111,31459
10.3168,32497
10.3225,33341
10.3282,33443
10.334,30851
10.3397,33948
10.3454,32811
10.3511,30379
10.3568,32543
10.3626,32119
10.3683,33811
10.374,32280
10.3797,32696
10.3854,32163
10.3912,31368
10.3969,32614
10.4026,31627
10.4083,34067
10.4141,32438
10.4198,32289
10.4255,33197
10.4312,31947
10.4369,31009
10.4427,32614
10.4484,30565
10.4541,34466
10.4598,32818
10.4656,31818
10.4713,32400
10.477,32526
10.4827,33963
10.4884,32191
10.4942,32700
10.4999,33127
10.5056,31977
10.5113,30897
10.5171,32595
10.5228,33294
10.5285,33492
10.5342,32691
10.5399,32756
10.5457,33246
10.5514,32401
10.5571,31547
10.5628,32251
10.5686,31123
10.5743,32155
10.58,31252
10.5857,33220
10.5914,32974
10.5972,32694
10.6029,30962
10.6086,33047
10.6143,33186
10.62,37649
10.6258,35573
10.6315,34351
10.6372,35162
10.6429,34336
10.6487,32536
10.6544,34854
10.6601,31433
10.6658,32414
10.6715,32733
10.6773,30007
10.683,30487
10.6887,31156
10.6944,31849
10.7002,31452
10.7059,30173
10.7116,28997
10.7173,32099
10.723,31448
10.7288,29868
10.7345,30012
10.7402,29731
10.7459,32695
10.7517,29200
10.7574,29672
10.7631,29489
10.7688,29579
10.7745,28948
10.7803,28991
10.786,30335
10.7917,29639
10.7974,30624
10.8032,31195
10.8089,28124
10.8146,28890
10.8203,28146
10.826,29842
10.8318,28136
10.8375,30619
10.8432,29466
10.8489,30407
10.8547,31326
10.8604,31458
10.8661,31484
10.8718,29125
10.8775,29708
10.8833,29763
10.889,29668
10.8947,28848
10.9004,30848
10.9061,29330
10.9119,30781
10.9176,30550
10.9233,31178
10.929,30036
10.9348,27557
10.9405,30179
10.9462,31503
10.9519,29932
10.9576,30367
10.9634,29446
10.9691,29892
10.9748,29482
10.9805,29577
10.9863,31143
10.992,28354
10.9977,29944
11.0034,30191
11.0091,30461
11.0149,32423
11.0206,31874
11.0263,31357
11.032,31106
11.0378,31385
11.0435,31437
11.0492,33513
11.0549,33728
11.0606,35940
11.0664,37895
11.0721,42142
11.0778,42837
11.0835,42907
11.0893,45778
11.095,49279
11.1007,53466
11.1064,56286
11.1121,59708
11.1179,61903
11.1236,64093
11.1293,63550
11.135,61110
11.1407,60334
11.1465,63382
11.1522,58847
11.1579,60641
11.1636,57988
11.1694,57642
11.1751,54329
11.1808,51371
11.1865,52599
11.1922,50720
11.198,48940
11.2037,49715
11.2094,48432
11.2151,49446
11.2209,46966
11.2266,46603
11.2323,44364
11.238,45015
11.2437,45067
11.2495,45495
11.2552,45581
11.2609,45776
11.2666,46993
11.2724,46903
11.2781,46111
11.2838,46309
11.2895,45738
11.2952,44925
11.301,46320
11.3067,46023
11.3124,44971
11.3181,45045
11.3239,44653
11.3296,43248
11.3353,41807
11.341,41007
11.3467,42390
11.3525,41161
11.3582,38818
11.3639,37346
11.3696,41467
11.3754,35502
11.3811,39098
11.3868,37703
11.3925,37297
11.3982,34769
11.404,37600
11.4097,34078
11.4154,35717
11.4211,36377
11.4268,37274
11.4326,35348
11.4383,34122
11.444,33929
11.4497,32847
11.4555,35199
11.4612,34435
11.4669,33179
11.4726,34742
11.4783,34424
11.4841,34020
11.4898,34221
11.4955,31824
11.5012,31923
11.507,33090
11.5127,33701
11.5184,33238
11.5241,32521
11.5298,33242
11.5356,30900
11.5413,32905
11.547,32344
11.5527,34286
11.5585,31808
11.5642,33001
11.5699,31219
11.5756,32387
11.5813,31944
11.5871,33722
11.5928,31863
11.5985,33455
11.6042,31910
11.61,32966
11.6157,31332
11.6214,28902
11.6271,33351
11.6328,32679
11.6386,32249
11.6443,32113
11.65,30758
11.6557,30894
11.6614,31538
11.6672,31879
11.6729,31155
11.6786,31069
11.6843,30396
11.6901,31932
11.6958,30081
11.7015,32841
11.7072,30867
11.7129,30333
11.7187,30271
11.7244,31797
11.7301,30785
11.7358,31712
11.7416,30901
11.7473,29436
11.753,32432
11.7587,31655
11.7644,31282
11.7702,32411
11.7759,31991
11.7816,31377
11.7873,29900
11.7931,29952
11.7988,29202
11.8045,30526
11.8102,30556
11.8159,30192
11.8217,31178
11.8274,31141
11.8331,32039
11.8388,30234
11.8446,29694
11.8503,30421
11.856,30618
11.8617,28893
11.8674,32620
11.8732,32128
11.8789,31556
11.8846,33806
11.8903,32929
11.896,33881
11.9018,32727
11.9075,30315
11.9132,31670
11.9189,32578
11.9247,30485
11.9304,31106
11.9361,31515
11.9418,31779
11.9475,31529
11.9533,30355
11.959,28781
11.9647,29728
11.9704,29082
11.9762,29891
11.9819,31834
11.9876,30376
11.9933,29549
11.999,29923
12.0048,30048
12.0105,29155
12.0162,31847
12.0219,29669
12.0277,29577
12.0334,29883
12.0391,30820
12.0448,29969
12.0505,30743
12.0563,30603
12.062,29811
12.0677,31109
12.0734,29617
12.0792,29994
12.0849,31230
12.0906,31330
12.0963,32130
12.102,28792
12.1078,29900
12.1135,29982
12.1192,28527
12.1249,30152
12.1307,30099
12.1364,29983
12.1421,30440
12.1478,29579
12.1535,29719
12.1593,28683
12.165,29959
12.1707,31272
12.1764,29844
12.1821,29847
12.1879,29962
12.1936,30074
12.1993,28517
12.205,30621
12.2108,31507
12.2165,29592
12.2222,27852
12.2279,31203
12.2336,29736
12.2394,29853
12.2451,28594
12.2508,31979
12.2565,29398
12.2623,29563
12.268,29445
12.2737,28763
12.2794,30377
12.2851,29776
12.2909,29511
12.2966,28117
12.3023,27604
12.308,30225
12.3138,29487
12.3195,29647
12.3252,30617
12.3309,27506
12.3366,27525
12.3424,30199
12.3481,29778
12.3538,28755
12.3595,30832
12.3653,29239
12.371,28951
12.3767,27818
12.3824,28642
12.3881,30747
12.3939,29585
12.3996,30284
12.4053,29691
12.411,31196
12.4167,30196
12.4225,30643
12.4282,30420
12.4339,30420
12.4396,31350
12.4454,28528
12.4511,30719
12.4568,28720
12.4625,30747
12.4682,29664
12.474,30599
12.4797,31509
12.4854,30610
12.4911,31248
12.4969,31753
12.5026,31700
12.5083,30073
12.514,29487
12.5197,29112
12.5255,29603
12.5312,28741
12.5369,29424
12.5426,31010
12.5484,29460
12.5541,29578
12.5598,29630
12.5655,28386
12.5712,30437
12.577,31574
12.5827,32657
12.5884,29650
12.5941,30129
12.5999,30375
12.6056,30618
12.6113,30836
12.617,29347
12.6227,28860
12.6285,31878
12.6342,29940
12.6399,30934
12.6456,31167
12.6513,32341
12.6571,32668
12.6628,32929
12.6685,33737
12.6742,32302
12.68,33015
12.6857,30037
12.6914,32040
12.6971,30496
12.7028,31753
12.7086,30878
12.7143,31176
12.72,31908
12.7257,30776
12.7315,33170
12.7372,31191
12.7429,32768
12.7486,31442
12.7543,30661
12.7601,32277
12.7658,33212
12.7715,33688
12.7772,31524
12.783,32389
12.7887,32217
12.7944,32572
12.8001,32157
12.8058,31694
12.8116,33374
12.8173,30394
12.823,33147
12.8287,32971
12.8345,31833
12.8402,33082
12.8459,35574
12.8516,32626
12.8573,30819
12.8631,31106
12.8688,29700
12.8745,32834
12.8802,30760
12.886,31732
12.8917,31514
12.8974,32051
12.9031,32845
12.9088,30450
12.9146,33883
12.9203,32582
12.926,32227
12.9317,31077
12.9374,30445
12.9432,30430
12.9489,32981
12.9546,30464
12.9603,33494
12.9661,31696
12.9718,31436
12.9775,33459
12.9832,33321
12.9889,33709
12.9947,33222
13.0004,32479
13.0061,30902
13.0118,33547
13.0176,33592
13.0233,32161
13.029,33008
13.0347,32742
13.0404,31967
13.0462,32750
13.0519,34735
13.0576,34211
13.0633,32100
13.0691,33845
13.0748,33003
13.0805,32308
13.0862,34257
13.0919,31458
13.0977,33570
13.1034,33438
13.1091,33093
13.1148,33250
13.1206,35400
13.1263,32857
13.132,36153
13.1377,34081
13.1434,34397
13.1492,34152
13.1549,34516
13.1606,34417
13.1663,33623
13.172,37755
13.1778,36522
13.1835,41295
13.1892,41242
13.1949,38743
13.2007,37608
13.2064,36748
13.2121,36827
13.2178,37401
13.2235,36519
13.2293,37102
13.235,38066
13.2407,37372
13.2464,33456
13.2522,37128
13.2579,36235
13.2636,36913
13.2693,35895
13.275,36701
13.2808,38253
13.2865,36438
13.2922,39058
13.2979,36555
13.3037,36959
13.3094,36837
13.3151,37527
13.3208,38258
13.3265,38566
13.3323,38498
13.338,39252
13.3437,40207
13.3494,37734
13.3552,39889
13.3609,38942
13.3666,39545
13.3723,41142
13.378,40924
13.3838,40988
13.3895,40993
13.3952,42544
13.4009,40401
13.4066,41147
13.4124,41879
13.4181,40758
13.4238,42860
13.4295,41885
13.4353,42243
13.441,40507
13.4467,43440
13.4524,40903
13.4581,41744
13.4639,39593
13.4696,43049
13.4753,42165
13.481,43342
13.4868,43692
13.4925,44993
13.4982,45662
13.5039,46110
13.5096,42834
13.5154,42322
13.5211,45732
13.5268,44688
13.5325,43448
13.5383,43548
13.544,44694
13.5497,43758
13.5554,43758
13.5611,43483
13.5669,42498
13.5726,45575
13.5783,45172
13.584,44079
13.5898,43806
13.5955,45672
13.6012,46884
13.6069,47042
13.6126,47361
13.6184,47508
13.6241,43313
13.6298,47689
13.6355,46255
13.6413,46001
13.647,43713
13.6527,46980
13.6584,46009
13.6641,46882
13.6699,46320
13.6756,47427
13.6813,46949
13.687,46860
13.6927,47979
13.6985,47342
13.7042,48284
13.7099,48799
13.7156,46925
13.7214,50038
13.7271,47856
13.7328,48362
13.7385,48380
13.7442,51985
13.75,50001
13.7557,50376
13.7614,49059
13.7671,51434
13.7729,58359
13.7786,56747
13.7843,58669
13.79,56822
13.7957,53810
13.8015,54637
13.8072,52340
13.8129,53011
13.8186,50850
13.8244,54006
13.8301,53464
13.8358,52260
13.8415,53857
13.8472,52772
13.853,55494
13.8587,54385
13.8644,58519
13.8701,62457
13.8759,65982
13.8816,66426
13.8873,62805
13.893,63368
13.8987,62734
13.9045,63020
13.9102,62127
13.9159,62588
13.9216,58307
13.9273,58651
13.9331,58066
13.9388,57391
13.9445,56081
13.9502,59106
13.956,59251
13.9617,59235
13.9674,59889
13.9731,62227
13.9788,65403
13.9846,63966
13.9903,62237
13.996,63590
14.0017,63395
14.0075,62300
14.0132,61798
14.0189,62898
14.0246,61836
14.0303,64848
14.0361,64294
14.0418,64569
14.0475,63563
14.0532,64873
14.059,64781
14.0647,66777
14.0704,65043
14.0761,64562
14.0818,65835
14.0876,65577
14.0933,67525
14.099,67689
14.1047,70606
14.1105,71139
14.1162,65797
14.1219,68341
14.1276,66800
14.1333,68142
14.1391,66775
14.1448,68056
14.1505,65400
14.1562,66834
14.1619,71781
14.1677,68364
14.1734,70952
14.1791,66967
14.1848,67092
14.1906,68602
14.1963,67386
14.202,68521
14.2077,71082
14.2134,72645
14.2192,70019
14.2249,70851
14.2306,69440
14.2363,71430
14.2421,71180
14.2478,70498
14.2535,69490
14.2592,72013
14.2649,75647
14.2707,71066
14.2764,71501
14.2821,71338
14.2878,70589
14.2936,72348
14.2993,74826
14.305,74531
14.3107,72978
14.3164,74023
14.3222,76248
14.3279,76663
14.3336,73268
14.3393,75441
14.3451,76162
14.3508,77919
14.3565,79304
14.3622,79767
14.3679,78338
14.3737,78221
14.3794,77850
14.3851,78467
14.3908,76317
14.3966,78109
14.4023,75232
14.408,78722
14.4137,80420
14.4194,78268
14.4252,78786
14.4309,77251
14.4366,80775
14.4423,79606
14.448,80175
14.4538,81425
14.4595,83090
14.4652,81275
14.4709,82396
14.4767,82746
14.4824,82559
14.4881,79766
14.4938,82388
14.4995,82682
14.5053,84054
14.511,85493
14.5167,86233
14.5224,89045
14.5282,88342
14.5339,84517
14.5396,89252
14.5453,87451
14.551,88530
14.5568,89946
14.5625,88953
14.5682,90309
14.5739,87547
14.5797,88408
14.5854,91683
14.5911,95328
14.5968,91921
14.6025,91354
14.6083,93836
14.614,92960
14.6197,92026
14.6254,94118
14.6312,94165
14.6369,93003
14.6426,92979
14.6483,94126
14.654,92099
14.6598,94243
14.6655,95295
14.6712,95636
14.6769,94545
14.6826,95815
14.6884,93662
14.6941,99166
14.6998,97325
14.7055,95847
14.7113,98463
14.717,99236
14.7227,97823
14.7284,97833
14.7341,102243
14.7399,96089
14.7456,99878
14.7513,99679
14.757,100331
14.7628,99245
14.7685,99698
14.7742,99821
14.7799,101867
14.7856,101669
14.7914,101116
14.7971,103188
14.8028,100448
14.8085,101794
14.8143,101774
14.82,104264
14.8257,102147
14.8314,103066
14.8371,104877
14.8429,103350
14.8486,104612
14.8543,103939
14.86,105797
14.8658,107956
14.8715,104858
14.8772,109435
14.8829,109791
14.8886,109785
14.8944,109081
14.9001,107706
14.9058,111918
14.9115,111298
14.9172,111977
14.923,112204
14.9287,115091
14.9344,110987
14.9401,111921
14.9459,113692
14.9516,113506
14.9573,113960
14.963,110634
14.9687,113928
14.9745,114969
14.9802,114376
14.9859,117169
14.9916,117041
14.9974,117453
15.0031,118236
15.0088,121734
15.0145,120772
15.0202,120927
15.026,120888
15.0317,119598
15.0374,124004
15.0431,119983
15.0489,119806
15.0546,125702
15.0603,123744
15.066,120032
15.0717,125400
15.0775,119679
15.0832,125794
15.0889,123863
15.0946,121589
15.1004,122405
15.1061,125915
15.1118,122015
15.1175,124848
15.1232,127517
15.129,122756
15.1347,126373
15.1404,129039
15.1461,125829
15.1519,127632
15.1576,129919
15.1633,131313
15.169,133716
15.1747,130707
15.1805,133519
15.1862,135551
15.1919,134663
15.1976,134972
15.2033,139629
15.2091,134640
15.2148,136095
15.2205,137772
15.2262,138406
15.232,136916
15.2377,141611
15.2434,136821
15.2491,140940
15.2548,141065
15.2606,142088
15.2663,144125
15.272,145398
15.2777,151820
15.2835,148378
15.2892,149314
15.2949,149886
15.3006,152036
15.3063,153536
15.3121,154924
15.3178,150736
15.3235,152212
15.3292,151980
15.335,151633
15.3407,149725
15.3464,153092
15.3521,156295
15.3578,155408
15.3636,157130
15.3693,154227
15.375,154157
15.3807,155124
15.3865,157004
15.3922,154252
15.3979,155269
15.4036,153031
15.4093,155257
15.4151,163549
15.4208,159440
15.4265,158517
15.4322,160276
15.4379,161741
15.4437,160132
15.4494,161790
15.4551,167365
15.4608,161670
15.4666,163149
15.4723,162181
15.478,169190
15.4837,164773
15.4894,167898
15.4952,163963
15.5009,161621
15.5066,164170
15.5123,165880
15.5181,168588
15.5238,169830
15.5295,170669
15.5352,171100
15.5409,175025
15.5467,169990
15.5524,174608
15.5581,171841
15.5638,174236
15.5696,176014
15.5753,174082
15.581,177215
15.5867,175923
15.5924,178367
15.5982,178607
15.6039,176596
15.6096,179820
15.6153,181471
15.6211,174476
15.6268,182082
15.6325,178926
15.6382,184883
15.6439,184767
15.6497,184205
15.6554,188449
15.6611,186415
15.6668,188292
15.6726,189641
15.6783,186896
15.684,189931
15.6897,189586
15.6954,192513
15.7012,192224
15.7069,190500
15.7126,198003
15.7183,194946
15.724,196385
15.7298,196550
15.7355,198365
15.7412,196207
15.7469,198754
15.7527,202605
15.7584,198699
15.7641,205827
15.7698,200827
15.7755,203074
15.7813,207186
15.787,208997
15.7927,209605
15.7984,208530
15.8042,207712
15.8099,207651
15.8156,211072
15.8213,210257
15.827,212289
15.8328,212009
15.8385,213418
15.8442,214619
15.8499,212850
15.8557,217751
15.8614,218264
15.8671,220084
15.8728,220984
15.8785,224169
15.8843,220250
15.89,218689
15.8957,221577
15.9014,222127
15.9072,221020
15.9129,227734
15.9186,222559
15.9243,224476
15.93,228984
15.9358,228155
15.9415,236090
15.9472,224623
15.9529,235675
15.9586,232933
15.9644,230772
15.9701,235451
15.9758,232986
15.9815,236832
15.9873,240881
15.993,241050
15.9987,242324
16.0044,241054
16.0101,241188
16.0159,242108
16.0216,244214
16.0273,243674
16.033,244901
16.0388,243538
16.0445,242992
16.0502,244798
16.0559,248661
16.0616,250849
16.0674,255173
16.0731,252540
16.0788,256091
16.0845,254095
16.0903,258988
16.096,256045
16.1017,259114
16.1074,265180
16.1131,261211
16.1188,262112
16.1246,260339
16.1303,266054
16.136,262790
16.1417,266691
16.1475,262122
16.1532,260000
16.1589,265273
16.1646,269954
16.1703,269833
16.1761,266028
16.1818,269755
16.1875,274460
16.1932,277362
16.199,274751
16.2047,271502
16.2104,273745
16.2161,281023
16.2219,279288
16.2276,276320
16.2333,285979
16.239,278409
16.2447,275996
16.2505,283481
16.2562,284015
16.2619,283434
16.2676,285158
16.2734,284282
16.2791,285578
16.2848,286027
16.2905,284754
16.2962,289928
16.302,289375
16.3077,294214
16.3134,301389
16.3191,301650
16.3249,300792
16.3306,299725
16.3363,295911
16.342,297264
16.3477,300937
16.3534,303887
16.3592,300297
16.3649,302279
16.3706,300793
16.3763,303463
16.3821,312310
16.3878,317194
16.3935,316101
16.3992,316689
16.4049,317675
16.4107,322412
16.4164,316388
16.4221,319867
16.4278,322450
16.4336,321680
16.4393,322805
16.445,328002
16.4507,323829
16.4565,328262
16.4622,330768
16.4679,324308
16.4736,329759
16.4793,324686
16.4851,328995
16.4908,335246
16.4965,341187
16.5022,340564
16.508,339284
16.5137,340243
16.5194,343158
16.5251,334461
16.5308,335970
16.5366,342910
16.5423,343064
16.548,341825
16.5537,345027
16.5594,346115
16.5652,348446
16.5709,353680
16.5766,348416
16.5823,344823
16.588,349915
16.5938,350318
16.5995,346675
16.6052,352661
16.6109,350020
16.6167,349961
16.6224,358208
16.6281,357297
16.6338,357280
16.6396,355375
16.6453,358244
16.651,359387
16.6567,367663
16.6625,360085
16.6682,366533
16.6739,361615
16.6796,367700
16.6853,368661
16.6911,367823
16.6968,373970
16.7025,373757
16.7082,378099
16.7139,375355
16.7197,377817
16.7254,379391
16.7311,379186
16.7368,376140
16.7426,378798
16.7483,392002
16.754,388606
16.7597,388770
16.7654,387696
16.7712,389508
16.7769,397618
16.7826,401529
16.7883,397640
16.794,401511
16.7998,404021
16.8055,405475
16.8112,400677
16.8169,403613
16.8226,406445
16.8284,412504
16.8341,411837
16.8398,412687
16.8455,413220
16.8513,421663
16.857,414312
16.8627,418535
16.8684,421807
16.8742,425246
16.8799,430626
16.8856,436286
16.8913,430927
16.8971,434624
16.9028,435898
16.9085,434000
16.9142,439503
16.9199,438763
16.9257,437367
16.9314,442257
16.9371,436819
16.9428,444109
16.9485,448715
16.9543,451262
16.96,456917
16.9657,444762
16.9714,453984
16.9772,459883
16.9829,457898
16.9886,460868
16.9943,465834
17,470631
17.0058,463981
17.0115,471866
17.0172,467835
17.0229,469750
17.0286,480801
17.0344,475428
17.0401,480495
17.0458,473089
17.0515,475022
17.0573,478640
17.063,484579
17.0687,487693
17.0744,483235
17.0802,478951
17.0859,486099
17.0916,487468
17.0973,486283
17.103,488466
17.1088,498720
17.1145,494113
17.1202,497692
17.1259,495853
17.1317,495167
17.1374,500034
17.1431,505603
17.1488,509582
17.1545,512591
17.1603,510312
17.166,510617
17.1717,513480
17.1774,514223
17.1832,521584
17.1889,523102
17.1946,519203
17.2003,528248
17.206,523384
17.2117,534430
17.2175,532342
17.2232,541041
17.2289,539596
17.2346,540077
17.2404,539689
17.2461,545112
17.2518,541668
17.2575,545002
17.2632,547218
17.269,548119
17.2747,552078
17.2804,547469
17.2861,551349
17.2919,552471
17.2976,554554
17.3033,562114
17.309,564408
17.3148,558534
17.3205,566766
17.3262,567411
17.3319,572130
17.3376,576609
17.3434,587982
17.3491,577038
17.3548,587067
17.3605,579618
17.3663,586020
17.372,590573
17.3777,590688
17.3834,590316
17.3891,600682
17.3949,595912
17.4006,595992
17.4063,599566
17.412,604287
17.4178,613461
17.4235,613325
17.4292,619517
17.4349,617984
17.4406,622843
17.4463,611478
17.4521,621537
17.4578,633747
17.4635,634273
17.4692,632407
17.475,635816
17.4807,636376
17.4864,638859
17.4921,642781
17.4979,647550
17.5036,650150
17.5093,644236
17.515,657749
17.5207,665045
17.5265,657688
17.5322,666170
17.5379,665211
17.5436,664642
17.5494,667706
17.5551,673142
17.5608,670052
17.5665,663321
17.5722,677904
17.578,679551
17.5837,672452
17.5894,676827
17.5951,695445
17.6009,684838
17.6066,693500
17.6123,696591
17.618,698716
17.6237,698376
17.6295,687889
17.6352,696833
17.6409,697276
17.6466,703312
17.6524,697739
17.6581,709097
17.6638,715404
17.6695,706784
17.6752,706281
17.6809,707793
17.6867,703634
17.6924,697346
17.6981,700662
17.7038,699384
17.7096,699120
17.7153,701942
17.721,702995
17.7267,702065
17.7325,695868
17.7382,698910
17.7439,697882
17.7496,702200
17.7553,691553
17.7611,691598
17.7668,691779
17.7725,697159
17.7782,700554
17.784,704014
17.7897,709646
17.7954,710037
17.8011,702292
17.8068,694563
17.8126,697140
17.8183,709891
17.824,705446
17.8297,711135
17.8355,712356
17.8412,708203
17.8469,714177
17.8526,717646
17.8583,712484
17.8641,701845
17.8698,709232
17.8755,709080
17.8812,706941
17.887,711008
17.8927,719692
17.8984,723818
17.9041,711784
17.9098,705089
17.9156,715897
17.9213,717313
17.927,718946
17.9327,720561
17.9385,716564
17.9442,726618
17.9499,720012
17.9556,721212
17.9613,724191
17.9671,715795
17.9728,719984
17.9785,725480
17.9842,722754
17.9899,711635
17.9957,711606
18.0014,719121
18.0071,722452
18.0128,713650
18.0186,716489
18.0243,721452
18.03,724174
18.0357,726815
18.0414,725449
18.0472,721745
18.0529,711238
18.0586,715129
18.0643,714865
18.0701,718276
18.0758,721987
18.0815,724936
18.0872,730383
18.0929,726760
18.0986,721874
18.1044,712262
18.1101,721504
18.1158,726197
18.1215,715812
18.1273,734269
18.133,723731
18.1387,724608
18.1444,731689
18.1502,734610
18.1559,728878
18.1616,729436
18.1673,725834
18.1731,720427
18.1788,720919
18.1845,712010
18.1902,717110
18.1959,725996
18.2017,722577
18.2074,727296
18.2131,730468
18.2188,725401
18.2245,728743
18.2303,730433
18.236,729893
18.2417,732308
18.2474,732554
18.2532,734858
18.2589,730700
18.2646,723525
18.2703,728940
18.276,724907
18.2818,726131
18.2875,731896
18.2932,727059
18.2989,730945
18.3047,729846
18.3104,734583
18.3161,725679
18.3218,734870
18.3275,731026
18.3333,723951
18.339,723847
18.3447,733437
18.3504,728568
18.3562,729324
18.3619,721568
18.3676,730617
18.3733,726186
18.379,727860
18.3848,717534
18.3905,729015
18.3962,719871
18.4019,722325
18.4077,719804
18.4134,731830
18.4191,724371
18.4248,719825
18.4305,716903
18.4363,726451
18.442,725991
18.4477,713066
18.4534,721073
18.4591,721289
18.4649,727700
18.4706,722534
18.4763,721002
18.482,728711
18.4878,732986
18.4935,730645
18.4992,726470
18.5049,734584
18.5106,726740
18.5164,725537
18.5221,718346
18.5278,723844
18.5335,720631
18.5392,727450
18.545,723064
18.5507,724325
18.5564,714817
18.5621,711631
18.5679,715886
18.5736,707991
18.5793,715342
18.585,712662
18.5908,712693
18.5965,717788
18.6022,718854
18.6079,712702
18.6136,720872
18.6194,726851
18.6251,715363
18.6308,724003
18.6365,729088
18.6423,741199
18.648,724886
18.6537,734462
18.6594,736566
18.6651,733100
18.6709,723918
18.6766,718565
18.6823,723066
18.688,721776
18.6938,734153
18.6995,733898
18.7052,732120
18.7109,730992
18.7166,738009
18.7224,736884
18.7281,737797
18.7338,728081
18.7395,725799
18.7452,729637
18.751,729286
18.7567,736021
18.7624,728101
18.7681,733510
18.7738,729354
18.7796,734515
18.7853,724523
18.791,732616
18.7967,726057
18.8025,715058
18.8082,721120
18.8139,727490
18.8196,728982
18.8254,724839
18.8311,730202
18.8368,726945
18.8425,735678
18.8482,735357
18.854,741217
18.8597,737488
18.8654,752601
18.8711,738251
18.8769,749055
18.8826,747864
18.8883,741550
18.894,751105
18.8997,741102
18.9055,738488
18.9112,735769
18.9169,744814
18.9226,742057
18.9284,735774
18.9341,746087
18.9398,738889
18.9455,748068
18.9512,747281
18.957,756553
18.9627,742800
18.9684,748191
18.9741,741000
18.9798,744044
18.9856,747352
18.9913,743776
18.997,746894
19.0027,749395
19.0085,743842
19.0142,743121
19.0199,736019
19.0256,753236
19.0313,750822
19.0371,746564
19.0428,746864
19.0485,745820
19.0542,748956
19.06,749804
19.0657,748023
19.0714,753083
19.0771,750446
19.0828,754310
19.0886,760716
19.0943,751938
19.1,759775
19.1057,755133
19.1115,751935
19.1172,748891
19.1229,746971
19.1286,750094
19.1343,756525
19.1401,748239
19.1458,756012
19.1515,758987
19.1572,769883
19.163,756869
19.1687,759216
19.1744,752778
19.1801,758944
19.1858,749326
19.1915,751055
19.1973,745375
19.203,755534
19.2087,757859
19.2144,748330
19.2202,750069
19.2259,755255
19.2316,755166
19.2373,752756
19.2431,752121
19.2488,755246
19.2545,746934
19.2602,758378
19.2659,749049
19.2717,752905
19.2774,747968
19.2831,750164
19.2888,740363
19.2946,751506
19.3003,742183
19.306,737668
19.3117,742712
19.3174,749393
19.3232,748299
19.3289,749005
19.3346,747760
19.3403,748229
19.3461,739744
19.3518,749133
19.3575,749673
19.3632,743096
19.3689,743589
19.3747,743564
19.3804,736744
19.3861,748431
19.3918,740190
19.3976,735407
19.4033,745719
19.409,743149
19.4147,740658
19.4204,747515
19.4262,741674
19.4319,750649
19.4376,749874
19.4433,742832
19.4491,748943
19.4548,738374
19.4605,750361
19.4662,748458
19.4719,742055
19.4777,742517
19.4834,747192
19.4891,746931
19.4948,749672
19.5005,723420
19.5063,744335
19.512,755406
19.5177,749683
19.5234,740433
19.5292,744950
19.5349,744644
19.5406,737735
19.5463,741100
19.552,740430
19.5578,746148
19.5635,745451
19.5692,736443
19.5749,743908
19.5807,743812
19.5864,742007
19.5921,737190
19.5978,745229
19.6035,738042
19.6092,737981
19.615,746350
19.6207,750981
19.6264,744128
19.6321,742511
19.6379,741393
19.6436,755360
19.6493,761232
19.655,745661
19.6608,740514
19.6665,747638
19.6722,759857
19.6779,748838
19.6837,752091
19.6894,759533
19.6951,752611
19.7008,759736
19.7065,753199
19.7123,757013
19.718,752511
19.7237,757035
19.7294,752995
19.7351,748749
19.7409,758049
19.7466,754316
19.7523,755380
19.758,747707
19.7638,758428
19.7695,755126
19.7752,755041
19.7809,759531
19.7866,751786
19.7924,758938
19.7981,746811
19.8038,751006
19.8095,747410
19.8153,765374
19.821,761358
19.8267,750122
19.8324,761440
19.8381,761809
19.8439,757989
19.8496,765076
19.8553,757426
19.861,760885
19.8668,751821
19.8725,755146
19.8782,754551
19.8839,764685
19.8896,759332
19.8954,761778
19.9011,758906
19.9068,761044
19.9125,759032
19.9183,762466
19.924,764531
19.9297,765383
19.9354,759268
19.9411,753515
19.9469,757578
19.9526,766241
19.9583,757333
19.964,754729
19.9697,758975
19.9755,756092
19.9812,754160
19.9869,748089
19.9926,759269
19.9984,762092
20.0041,763846
20.0098,759350
20.0155,762225
20.0212,768260
20.027,768796
20.0327,765732
20.0384,759745
20.0441,765267
20.0498,757198
20.0556,743315
20.0613,766020
20.067,759497
20.0727,772022
20.0785,763285
20.0842,776370
20.0899,764639
20.0956,775641
20.1014,766522
20.1071,767290
20.1128,762767
20.1185,770573
20.1242,763999
20.13,765816
20.1357,758922
20.1414,755647
20.1471,752801
20.1529,750957
20.1586,752012
20.1643,752666
20.17,747042
20.1757,755366
20.1815,747128
20.1872,750160
20.1929,755559
20.1986,758971
20.2044,739946
20.2101,755507
20.2158,750255
20.2215,745386
20.2272,758489
20.233,742102
20.2387,747911
20.2444,746841
20.2501,751717
20.2558,752377
20.2616,758668
20.2673,755850
20.273,753140
20.2787,750181
20.2845,741392
20.2902,737286
20.2959,749684
20.3016,757553
20.3073,753600
20.3131,754180
20.3188,764254
20.3245,756348
20.3302,756832
20.336,758036
20.3417,755865
20.3474,760718
20.3531,769698
20.3588,753577
20.3646,754352
20.3703,748621
20.376,751062
20.3817,755089
20.3875,756808
20.3932,750938
20.3989,752904
20.4046,754392
20.4103,749694
20.4161,754753
20.4218,757869
20.4275,762822
20.4332,765138
20.439,765950
20.4447,766392
20.4504,765100
20.4561,769787
20.4618,765488
20.4675,759659
20.4733,766107
20.479,760050
20.4847,761928
20.4904,758326
