C:\MSDCHEM\1\DATA\BECKY\20180124 2 PHASE EXTR 2\1-23-18 MS 4A.d 24 Jan 18   9:57 pm
Start of data points
3.09253,10146
3.09825,9763
3.10398,9892
3.1097,9854
3.11542,9926
3.12115,9854
3.12687,8968
3.13258,10015
3.13832,9985
3.14403,8869
3.14975,9183
3.15547,8892
3.1612,9191
3.16692,9236
3.17263,8971
3.17837,9131
3.18408,9156
3.1898,7771
3.19553,9396
3.20125,9103
3.20697,9215
3.2127,8841
3.21842,8943
3.22413,8445
3.22987,8589
3.23558,8575
3.2413,8147
3.24703,8416
3.25275,8700
3.25847,7755
3.2642,8066
3.26992,6834
3.27563,7761
3.28135,6770
3.28708,6491
3.2928,7239
3.29852,7388
3.30425,7171
3.30997,6235
3.31568,6651
3.32142,6461
3.32713,6082
3.33285,6513
3.33858,6098
3.3443,5502
3.35002,6322
3.35575,5371
3.36147,6146
3.36718,5042
3.37292,5443
3.37863,5952
3.38435,5572
3.39008,6001
3.3958,5159
3.40152,5484
3.40723,5958
3.41297,5281
3.41868,4996
3.4244,4984
3.43013,5262
3.43585,4597
3.44157,5154
3.4473,5519
3.45302,4672
3.45873,5065
3.46447,4575
3.47018,4589
3.4759,4669
3.48163,4337
3.48735,4789
3.49307,4902
3.4988,4560
3.50452,5147
3.51023,4782
3.51597,3953
3.52168,3077
3.5274,3649
3.53312,4291
3.53885,4125
3.54457,3565
3.55028,3619
3.55602,3877
3.56173,5110
3.56745,3784
3.57318,3850
3.5789,3446
3.58462,4385
3.59035,3711
3.59607,3910
3.60178,4510
3.60752,3151
3.61323,3174
3.61895,3212
3.62468,3701
3.6304,3215
3.63612,3557
3.64185,4206
3.64757,3899
3.65328,3482
3.659,3378
3.66473,2574
3.67045,3793
3.67617,3496
3.6819,3008
3.68762,3478
3.69333,3727
3.69907,4086
3.70478,3288
3.7105,2567
3.71623,3329
3.72195,2928
3.72767,3064
3.7334,2976
3.73912,2903
3.74483,2247
3.75057,3263
3.75628,2903
3.762,4130
3.76773,3140
3.77345,2945
3.77917,3931
3.78488,2456
3.79062,2980
3.79633,2523
3.80205,2917
3.80778,2741
3.8135,2692
3.81922,2890
3.82495,2641
3.83067,2473
3.83638,2830
3.84212,2491
3.84783,2712
3.85355,3367
3.85928,1962
3.865,2597
3.87072,2530
3.87645,3201
3.88217,2494
3.88788,3215
3.89362,2252
3.89933,2830
3.90505,3027
3.91077,2026
3.9165,2470
3.92222,2664
3.92793,2549
3.93367,3198
3.93938,2343
3.9451,2455
3.95083,2330
3.95655,2189
3.96227,2531
3.968,2333
3.97372,2296
3.97943,2386
3.98517,2293
3.99088,2954
3.9966,2639
4.00233,2749
4.00805,1755
4.01377,2325
4.0195,2237
4.02522,2188
4.03093,2089
4.03665,2781
4.04238,2994
4.0481,2882
4.05382,3051
4.05955,2924
4.06527,2942
4.07098,3504
4.07672,3876
4.08243,1705
4.08815,2483
4.09388,2232
4.0996,2805
4.10532,2296
4.11105,2827
4.11677,2465
4.12248,1618
4.12822,2126
4.13393,2258
4.13965,2413
4.14538,2136
4.1511,2388
4.15682,2139
4.16253,2350
4.16827,2345
4.17398,1683
4.1797,1993
4.18543,1463
4.19115,1768
4.19687,2240
4.2026,2122
4.20832,1788
4.21403,1935
4.21977,1840
4.22548,1845
4.2312,1771
4.23693,1620
4.24265,1566
4.24837,1699
4.2541,2144
4.25982,1891
4.26553,1637
4.27127,1853
4.27698,1996
4.2827,2010
4.28843,1368
4.29415,2000
4.29987,1461
4.30558,1835
4.31132,1535
4.31703,1935
4.32275,2062
4.32848,2041
4.3342,1433
4.33992,1923
4.34565,1812
4.35137,1430
4.35708,2093
4.36282,1676
4.36853,2000
4.37425,2377
4.37998,1778
4.3857,2318
4.39142,1539
4.39715,1489
4.40287,1211
4.40858,1906
4.41432,1951
4.42003,1683
4.42575,2519
4.43147,1534
4.4372,1309
4.44292,1942
4.44863,2018
4.45437,1964
4.46008,1785
4.4658,1664
4.47153,2037
4.47725,2213
4.48297,2416
4.4887,2285
4.49442,1551
4.50013,1319
4.50587,2177
4.51158,1720
4.5173,1344
4.52303,1710
4.52875,1554
4.53447,2150
4.5402,1403
4.54592,1018
4.55163,1659
4.55735,1856
4.56308,1628
4.5688,1729
4.57452,1908
4.58025,1877
4.58597,2187
4.59168,1492
4.59742,1546
4.60313,1172
4.60885,1192
4.61458,1654
4.6203,1137
4.62602,1798
4.63175,1595
4.63747,1312
4.64318,1420
4.64892,1319
4.65463,859
4.66035,1315
4.66608,1673
4.6718,1603
4.67752,1414
4.68323,2202
4.68897,1322
4.69468,1730
4.7004,1444
4.70613,1142
4.71185,1553
4.71757,2267
4.7233,1120
4.72902,1741
4.73473,1723
4.74047,1309
4.74618,2033
4.7519,1038
4.75763,1751
4.76335,1588
4.76907,1143
4.7748,1137
4.78052,1109
4.78623,1286
4.79197,1793
4.79768,1284
4.8034,1178
4.80912,1186
4.81485,1463
4.82057,1640
4.82628,991
4.83202,1591
4.83773,1421
4.84345,1124
4.84918,927
4.8549,911
4.86062,880
4.86635,1433
4.87207,1388
4.87778,1178
4.88352,1421
4.88923,831
4.89495,1122
4.90068,1461
4.9064,1581
4.91212,1625
4.91785,1302
4.92357,1219
4.92928,1395
4.935,1206
4.94073,1378
4.94645,1484
4.95217,1534
4.9579,1100
4.96362,1290
4.96933,927
4.97507,1783
4.98078,1054
4.9865,1534
4.99223,1133
4.99795,1401
5.00367,849
5.0094,1420
5.01512,1368
5.02083,930
5.02657,1172
5.03228,1947
5.038,3079
5.04373,7363
5.04945,12941
5.05517,13817
5.06088,14099
5.06662,13769
5.07233,15666
5.07805,26197
5.08378,38374
5.0895,48522
5.09522,53626
5.10095,54838
5.10667,54851
5.11238,50947
5.11812,49550
5.12383,47087
5.12955,41170
5.13528,38172
5.141,34304
5.14672,33077
5.15245,32596
5.15817,29983
5.16388,26428
5.16962,25403
5.17533,22712
5.18105,22194
5.18677,21214
5.1925,18716
5.19822,17184
5.20393,16530
5.20967,15882
5.21538,15404
5.2211,15079
5.22683,12572
5.23255,11328
5.23827,11169
5.244,9578
5.24972,9693
5.25543,8772
5.26117,9174
5.26688,8796
5.2726,7967
5.27833,7635
5.28405,6885
5.28977,7038
5.2955,6696
5.30122,5675
5.30693,4860
5.31265,5639
5.31838,5137
5.3241,4687
5.32982,4809
5.33555,4605
5.34127,3951
5.34698,4547
5.35272,3983
5.35843,3327
5.36415,3308
5.36988,3294
5.3756,3355
5.38132,2584
5.38705,2684
5.39277,2549
5.39848,3417
5.40422,2463
5.40993,2875
5.41565,2733
5.42138,2796
5.4271,2621
5.43282,3870
5.43853,2634
5.44427,2289
5.44998,2325
5.4557,1976
5.46143,2194
5.46715,1771
5.47287,1958
5.4786,1352
5.48432,1800
5.49003,1742
5.49577,1310
5.50148,1006
5.5072,1344
5.51293,1423
5.51865,1411
5.52437,1049
5.5301,995
5.53582,1517
5.54153,1418
5.54727,1330
5.55298,1510
5.5587,1336
5.56442,1062
5.57015,1252
5.57587,926
5.58158,845
5.58732,922
5.59303,614
5.59875,1352
5.60448,1320
5.6102,700
5.61592,809
5.62165,702
5.62737,1031
5.63308,408
5.63882,1157
5.64453,1118
5.65025,818
5.65598,949
5.6617,1100
5.66742,833
5.67315,836
5.67887,922
5.68458,339
5.6903,777
5.69603,1038
5.70175,715
5.70747,910
5.7132,829
5.71892,857
5.72463,646
5.73037,893
5.73608,974
5.7418,273
5.74753,637
5.75325,948
5.75897,390
5.7647,484
5.77042,607
5.77613,885
5.78187,936
5.78758,820
5.7933,707
5.79903,781
5.80475,564
5.81047,457
5.81618,416
5.82192,540
5.82763,1313
5.83335,613
5.83908,1003
5.8448,886
5.85052,532
5.85625,1203
5.86197,435
5.86768,372
5.87342,921
5.87913,824
5.88485,206
5.89058,878
5.8963,746
5.90202,569
5.90775,718
5.91347,450
5.91918,951
5.92492,664
5.93063,519
5.93635,939
5.94207,737
5.9478,348
5.95352,472
5.95923,854
5.96497,699
5.97068,719
5.9764,550
5.98213,698
5.98785,603
5.99357,357
5.9993,466
6.00502,176
6.01073,589
6.01647,312
6.02218,609
6.0279,550
6.03363,677
6.03935,499
6.04507,589
6.0508,533
6.05652,514
6.06223,533
6.06795,647
6.07368,730
6.0794,1182
6.08512,1319
6.09085,633
6.09657,806
6.10228,721
6.10802,526
6.11373,772
6.11945,986
6.12518,1020
6.1309,796
6.13662,284
6.14235,661
6.14807,906
6.15378,1005
6.15952,886
6.16523,957
6.17095,989
6.17668,192
6.1824,225
6.18812,594
6.19383,325
6.19957,720
6.20528,739
6.211,173
6.21673,893
6.22245,673
6.22817,719
6.2339,188
6.23962,207
6.24533,776
6.25107,629
6.25678,479
6.2625,271
6.26823,777
6.27395,351
6.27967,526
6.2854,1011
6.29112,227
6.29683,181
6.30257,576
6.30828,823
6.314,876
6.31972,780
6.32545,507
6.33117,443
6.33688,456
6.34262,1411
6.34833,599
6.35405,454
6.35978,230
6.3655,725
6.37122,923
6.37695,1074
6.38267,544
6.38838,737
6.39412,700
6.39983,642
6.40555,507
6.41128,653
6.417,924
6.42272,452
6.42845,447
6.43417,354
6.43988,653
6.4456,868
6.45133,520
6.45705,330
6.46277,787
6.4685,671
6.47422,382
6.47993,569
6.48567,688
6.49138,656
6.4971,695
6.50283,932
6.50855,188
6.51427,632
6.52,951
6.52572,572
6.53143,359
6.53717,215
6.54288,450
6.5486,236
6.55433,219
6.56005,450
6.56577,453
6.57148,696
6.57722,353
6.58293,625
6.58865,264
6.59438,437
6.6001,594
6.60582,1045
6.61155,1199
6.61727,1016
6.62298,1600
6.62872,490
6.63443,951
6.64015,1191
6.64588,1324
6.6516,1274
6.65732,843
6.66305,867
6.66877,829
6.67448,898
6.68022,1118
6.68593,402
6.69165,408
6.69737,554
6.7031,932
6.70882,518
6.71453,472
6.72027,777
6.72598,622
6.7317,808
6.73743,465
6.74315,388
6.74887,505
6.7546,352
6.76032,710
6.76603,561
6.77177,414
6.77748,543
6.7832,856
6.78893,759
6.79465,673
6.80037,199
6.8061,558
6.81182,321
6.81753,753
6.82325,568
6.82898,401
6.8347,514
6.84042,430
6.84615,274
6.85187,246
6.85758,733
6.86332,813
6.86903,621
6.87475,211
6.88048,453
6.8862,491
6.89192,605
6.89765,208
6.90337,380
6.90908,368
6.91482,665
6.92053,427
6.92625,458
6.93198,571
6.9377,600
6.94342,451
6.94913,490
6.95487,305
6.96058,633
6.9663,663
6.97203,376
6.97775,848
6.98347,984
6.9892,623
6.99492,448
7.00063,661
7.00637,631
7.01208,927
7.0178,606
7.02353,475
7.02925,827
7.03497,593
7.0407,913
7.04642,696
7.05213,630
7.05787,532
7.06358,799
7.0693,320
7.07502,877
7.08075,852
7.08647,888
7.09218,1307
7.09792,1753
7.10363,2121
7.10935,2226
7.11508,2210
7.1208,1512
7.12652,1534
7.13225,1307
7.13797,877
7.14368,984
7.14942,614
7.15513,936
7.16085,1041
7.16658,0
7.1723,847
7.17802,726
7.18375,406
7.18947,916
7.19518,1260
7.2009,2042
7.20663,1100
7.21235,2262
7.21807,1711
7.2238,1802
7.22952,2286
7.23523,2150
7.24097,1199
7.24668,1297
7.2524,888
7.25813,1018
7.26385,1010
7.26957,407
7.2753,1238
7.28102,1306
7.28673,1462
7.29247,2491
7.29818,3592
7.3039,4832
7.30963,4565
7.31535,4532
7.32107,2744
7.32678,2767
7.33252,2250
7.33823,1508
7.34395,1196
7.34968,1046
7.3554,848
7.36112,876
7.36685,744
7.37257,974
7.37828,885
7.38402,578
7.38973,754
7.39545,641
7.40118,716
7.4069,668
7.41262,487
7.41835,425
7.42407,479
7.42978,824
7.43552,556
7.44123,374
7.44695,657
7.45267,816
7.4584,683
7.46412,365
7.46983,570
7.47557,275
7.48128,282
7.487,620
7.49273,198
7.49845,170
7.50417,532
7.5099,642
7.51562,587
7.52133,408
7.52707,459
7.53278,610
7.5385,986
7.54423,450
7.54995,428
7.55567,626
7.5614,401
7.56712,670
7.57283,444
7.57855,246
7.58428,415
7.59,353
7.59572,651
7.60145,733
7.60717,384
7.61288,561
7.61862,557
7.62433,435
7.63005,418
7.63578,676
7.6415,427
7.64722,380
7.65295,368
7.65867,493
7.66438,407
7.67012,1019
7.67583,898
7.68155,393
7.68728,762
7.693,891
7.69872,551
7.70443,1348
7.71017,823
7.71588,574
7.7216,650
7.72733,865
7.73305,931
7.73877,1072
7.7445,981
7.75022,459
7.75593,419
7.76167,575
7.76738,596
7.7731,731
7.77883,993
7.78455,1043
7.79027,345
7.796,792
7.80172,606
7.80743,849
7.81317,1191
7.81888,713
7.8246,1071
7.83033,685
7.83605,649
7.84177,584
7.84748,883
7.85322,338
7.85893,856
7.86465,921
7.87038,804
7.8761,909
7.88182,753
7.88755,585
7.89327,663
7.89898,664
7.90472,1211
7.91043,1135
7.91615,1010
7.92188,683
7.9276,813
7.93332,635
7.93905,728
7.94477,1173
7.95048,800
7.95622,822
7.96193,706
7.96765,1249
7.97337,1028
7.9791,937
7.98482,871
7.99053,1002
7.99627,651
8.00198,489
8.0077,610
8.01343,915
8.01915,1149
8.02487,934
8.0306,714
8.03632,657
8.04203,900
8.04777,492
8.05348,795
8.0592,752
8.06493,1181
8.07065,1147
8.07637,965
8.0821,842
8.08782,658
8.09353,1100
8.09925,972
8.10498,756
8.1107,574
8.11642,1020
8.12215,911
8.12787,708
8.13358,900
8.13932,1075
8.14503,834
8.15075,817
8.15648,1132
8.1622,1396
8.16792,1214
8.17365,952
8.17937,1012
8.18508,1100
8.19082,1179
8.19653,1272
8.20225,961
8.20798,930
8.2137,1171
8.21942,1345
8.22513,1296
8.23087,593
8.23658,988
8.2423,544
8.24803,518
8.25375,790
8.25947,738
8.2652,757
8.27092,706
8.27663,1388
8.28237,1183
8.28808,783
8.2938,1012
8.29953,965
8.30525,1592
8.31097,1263
8.3167,775
8.32242,997
8.32813,1037
8.33387,925
8.33958,829
8.3453,1186
8.35102,660
8.35675,448
8.36247,602
8.36818,835
8.37392,786
8.37963,1118
8.38535,1011
8.39108,713
8.3968,1440
8.40252,1175
8.40825,858
8.41397,651
8.41968,1022
8.42542,656
8.43113,1295
8.43685,1536
8.44258,1402
8.4483,547
8.45402,1830
8.45975,1405
8.46547,771
8.47118,999
8.4769,628
8.48263,1393
8.48835,1093
8.49407,829
8.4998,1397
8.50552,1243
8.51123,1336
8.51697,889
8.52268,1004
8.5284,1469
8.53413,1025
8.53985,1767
8.54557,1521
8.5513,759
8.55702,1136
8.56273,878
8.56847,1242
8.57418,1090
8.5799,1345
8.58563,1142
8.59135,1372
8.59707,1225
8.60278,873
8.60852,1509
8.61423,960
8.61995,933
8.62568,1609
8.6314,973
8.63712,853
8.64285,842
8.64857,1001
8.65428,764
8.66002,1318
8.66573,1271
8.67145,1415
8.67718,1300
8.6829,969
8.68862,1104
8.69435,1240
8.70007,1247
8.70578,1605
8.71152,1114
8.71723,1037
8.72295,1269
8.72867,1426
8.7344,1762
8.74012,1774
8.74583,979
8.75157,1596
8.75728,1345
8.763,1933
8.76873,1425
8.77445,1682
8.78017,1500
8.7859,1662
8.79162,1137
8.79733,1160
8.80307,1115
8.80878,2315
8.8145,1237
8.82023,899
8.82595,1561
8.83167,1795
8.8374,1127
8.84312,1797
8.84883,1516
8.85455,1915
8.86028,1798
8.866,1938
8.87172,1700
8.87745,1612
8.88317,1067
8.88888,1253
8.89462,1715
8.90033,1337
8.90605,1817
8.91178,1328
8.9175,1731
8.92322,1443
8.92895,1663
8.93467,1827
8.94038,1476
8.94612,1589
8.95183,1331
8.95755,1773
8.96328,1910
8.969,2850
8.97472,3951
8.98043,5836
8.98617,7108
8.99188,6969
8.9976,5520
9.00333,3574
9.00905,2632
9.01477,1851
9.0205,1353
9.02622,1570
9.03193,1954
9.03767,1560
9.04338,1408
9.0491,1931
9.05483,1768
9.06055,1710
9.06627,1990
9.072,1768
9.07772,1830
9.08343,1584
9.08917,1859
9.09488,2396
9.1006,1777
9.10632,1668
9.11205,2378
9.11777,2114
9.12348,1252
9.12922,1654
9.13493,1350
9.14065,1652
9.14638,1537
9.1521,1892
9.15782,1527
9.16355,2371
9.16927,1917
9.17498,1586
9.18072,1268
9.18643,1120
9.19215,1955
9.19788,1464
9.2036,1955
9.20932,2184
9.21505,2125
9.22077,1543
9.22648,1602
9.2322,1688
9.23793,1783
9.24365,1462
9.24937,1585
9.2551,2170
9.26082,1737
9.26653,1138
9.27227,846
9.27798,1590
9.2837,1675
9.28943,2050
9.29515,1769
9.30087,1966
9.3066,1363
9.31232,1339
9.31803,1593
9.32377,1152
9.32948,897
9.3352,1853
9.34093,2048
9.34665,1859
9.35237,1596
9.35808,1384
9.36382,2228
9.36953,1506
9.37525,1452
9.38098,2181
9.3867,1796
9.39242,1374
9.39815,1890
9.40387,1626
9.40958,2133
9.41532,1437
9.42103,1687
9.42675,1704
9.43248,1703
9.4382,1712
9.44392,2120
9.44965,1601
9.45537,1637
9.46108,1723
9.46682,1945
9.47253,1639
9.47825,1996
9.48397,1803
9.4897,1970
9.49542,1881
9.50113,1795
9.50687,2392
9.51258,1976
9.5183,1218
9.52403,1937
9.52975,2781
9.53547,1186
9.5412,1965
9.54692,1374
9.55263,1927
9.55837,2522
9.56408,1818
9.5698,2007
9.57553,1521
9.58125,1511
9.58697,1300
9.5927,1748
9.59842,1669
9.60413,1533
9.60985,2141
9.61558,1612
9.6213,1788
9.62702,1319
9.63275,1403
9.63847,2018
9.64418,2169
9.64992,2028
9.65563,2059
9.66135,1922
9.66708,1808
9.6728,1795
9.67852,2595
9.68425,1552
9.68997,2282
9.69568,1911
9.70142,1642
9.70713,1770
9.71285,1727
9.71858,2142
9.7243,2289
9.73002,1924
9.73573,1730
9.74147,2001
9.74718,1821
9.7529,1698
9.75863,1530
9.76435,2249
9.77007,1823
9.7758,1949
9.78152,2407
9.78723,1876
9.79297,2410
9.79868,1398
9.8044,2177
9.81013,2255
9.81585,1984
9.82157,1864
9.8273,2138
9.83302,1943
9.83873,2130
9.84447,1653
9.85018,1917
9.8559,1916
9.86162,1883
9.86735,2299
9.87307,1845
9.87878,2156
9.88452,1511
9.89023,2529
9.89595,2231
9.90168,2755
9.9074,1766
9.91312,1800
9.91885,1990
9.92457,2255
9.93028,1726
9.93602,2277
9.94173,2712
9.94745,2015
9.95318,2478
9.9589,1822
9.96462,2110
9.97035,2500
9.97607,2167
9.98178,2066
9.9875,2732
9.99323,2028
9.99895,1832
10.0047,2132
10.0104,1900
10.0161,1975
10.0218,1654
10.0276,1571
10.0333,2061
10.039,2382
10.0447,2446
10.0505,1739
10.0562,1650
10.0619,1302
10.0676,1887
10.0733,1725
10.0791,1715
10.0848,1442
10.0905,1801
10.0962,2383
10.102,1996
10.1077,2173
10.1134,1821
10.1191,2320
10.1248,2020
10.1306,1965
10.1363,1972
10.142,2117
10.1477,2105
10.1535,2253
10.1592,2059
10.1649,2741
10.1706,1834
10.1763,1933
10.1821,1781
10.1878,2251
10.1935,2171
10.1992,1190
10.205,1702
10.2107,1517
10.2164,1402
10.2221,1530
10.2278,2434
10.2336,1962
10.2393,1895
10.245,1524
10.2507,1224
10.2564,2241
10.2622,1693
10.2679,1804
10.2736,2053
10.2793,1792
10.2851,1702
10.2908,2403
10.2965,2580
10.3022,1972
10.3079,1689
10.3137,1885
10.3194,2116
10.3251,1941
10.3308,2164
10.3366,1856
10.3423,1959
10.348,2494
10.3537,1877
10.3594,1850
10.3652,1938
10.3709,1647
10.3766,2494
10.3823,2778
10.3881,2146
10.3938,2039
10.3995,2544
10.4052,2266
10.4109,2533
10.4167,4212
10.4224,5861
10.4281,6793
10.4338,5936
10.4396,3485
10.4453,2784
10.451,1986
10.4567,2390
10.4624,1803
10.4682,2158
10.4739,1858
10.4796,2691
10.4853,2123
10.491,2516
10.4968,2037
10.5025,2282
10.5082,2159
10.5139,1808
10.5197,2247
10.5254,2989
10.5311,2056
10.5368,1854
10.5425,2346
10.5483,1876
10.554,2008
10.5597,1686
10.5654,1872
10.5712,1597
10.5769,1962
10.5826,2460
10.5883,2227
10.594,2006
10.5998,2704
10.6055,2968
10.6112,2181
10.6169,2582
10.6227,3678
10.6284,3439
10.6341,6887
10.6398,11511
10.6455,19497
10.6513,19371
10.657,15488
10.6627,9769
10.6684,5303
10.6742,2766
10.6799,2127
10.6856,3060
10.6913,2377
10.697,2798
10.7028,2515
10.7085,2945
10.7142,2343
10.7199,2461
10.7257,2787
10.7314,2369
10.7371,2290
10.7428,2402
10.7485,2589
10.7543,1828
10.76,2341
10.7657,2206
10.7714,2511
10.7771,1908
10.7829,2475
10.7886,1865
10.7943,1749
10.8,2507
10.8058,2087
10.8115,2876
10.8172,2465
10.8229,2435
10.8286,3349
10.8344,2922
10.8401,2287
10.8458,3109
10.8515,2309
10.8573,2907
10.863,2743
10.8687,2244
10.8744,3119
10.8801,4314
10.8859,3951
10.8916,6296
10.8973,4849
10.903,4596
10.9088,2751
10.9145,2073
10.9202,2166
10.9259,1876
10.9316,2645
10.9374,2815
10.9431,1900
10.9488,2264
10.9545,2329
10.9603,2940
10.966,2376
10.9717,2697
10.9774,3067
10.9831,2875
10.9889,2747
10.9946,2673
11.0003,3507
11.006,2859
11.0117,3338
11.0175,3445
11.0232,3078
11.0289,4086
11.0346,3425
11.0404,3207
11.0461,3783
11.0518,2839
11.0575,4089
11.0632,3365
11.069,4173
11.0747,3284
11.0804,2421
11.0861,2910
11.0919,3546
11.0976,3170
11.1033,3838
11.109,2926
11.1147,4359
11.1205,5369
11.1262,8237
11.1319,16545
11.1376,15985
11.1434,11998
11.1491,10390
11.1548,12819
11.1605,20813
11.1662,36943
11.172,41075
11.1777,42759
11.1834,35881
11.1891,30136
11.1949,23623
11.2006,23633
11.2063,18304
11.212,18417
11.2177,16332
11.2235,13680
11.2292,13685
11.2349,13043
11.2406,11356
11.2463,12600
11.2521,11568
11.2578,9357
11.2635,10968
11.2692,8903
11.275,9832
11.2807,8869
11.2864,8729
11.2921,7992
11.2978,7592
11.3036,8245
11.3093,7778
11.315,7813
11.3207,7306
11.3265,7379
11.3322,7194
11.3379,5781
11.3436,6515
11.3493,7131
11.3551,5708
11.3608,6881
11.3665,6498
11.3722,6696
11.378,6641
11.3837,4502
11.3894,6116
11.3951,5744
11.4008,5716
11.4066,4872
11.4123,4793
11.418,5638
11.4237,6177
11.4295,5032
11.4352,5338
11.4409,6331
11.4466,6651
11.4523,6895
11.4581,5637
11.4638,5551
11.4695,4876
11.4752,4981
11.481,5706
11.4867,4206
11.4924,3888
11.4981,4432
11.5038,4361
11.5096,5017
11.5153,4579
11.521,4920
11.5267,3799
11.5324,5445
11.5382,4691
11.5439,3663
11.5496,3732
11.5553,4582
11.5611,4035
11.5668,3948
11.5725,5192
11.5782,4677
11.5839,4231
11.5897,3562
11.5954,4334
11.6011,3905
11.6068,4488
11.6126,3667
11.6183,3483
11.624,4264
11.6297,4248
11.6354,4183
11.6412,4718
11.6469,3954
11.6526,4630
11.6583,4294
11.6641,4611
11.6698,4501
11.6755,4499
11.6812,4694
11.6869,4614
11.6927,3653
11.6984,5518
11.7041,6942
11.7098,8111
11.7156,7702
11.7213,5584
11.727,5299
11.7327,3560
11.7384,4300
11.7442,3602
11.7499,4158
11.7556,4206
11.7613,3985
11.767,3085
11.7728,4036
11.7785,3840
11.7842,3460
11.7899,3674
11.7957,4135
11.8014,4349
11.8071,3923
11.8128,3638
11.8185,2612
11.8243,3882
11.83,4323
11.8357,3938
11.8414,4101
11.8472,3640
11.8529,3728
11.8586,4338
11.8643,3648
11.87,3432
11.8758,3138
11.8815,3502
11.8872,3283
11.8929,3621
11.8987,4004
11.9044,3518
11.9101,3599
11.9158,3993
11.9215,3845
11.9273,4350
11.933,4645
11.9387,3950
11.9444,3582
11.9502,3844
11.9559,3437
11.9616,3545
11.9673,3691
11.973,4154
11.9788,3717
11.9845,4124
11.9902,3013
11.9959,3936
12.0017,4657
12.0074,3383
12.0131,4205
12.0188,3443
12.0245,3377
12.0303,4168
12.036,3464
12.0417,4121
12.0474,3383
12.0531,3974
12.0589,3853
12.0646,3906
12.0703,4164
12.076,4181
12.0818,4361
12.0875,6489
12.0932,8578
12.0989,10346
12.1046,9562
12.1104,7418
12.1161,5333
12.1218,3870
12.1275,4224
12.1333,4392
12.139,4387
12.1447,3766
12.1504,3865
12.1561,3428
12.1619,3602
12.1676,3638
12.1733,3883
12.179,4036
12.1848,4540
12.1905,4686
12.1962,4407
12.2019,4062
12.2076,4331
12.2134,4117
12.2191,4371
12.2248,3976
12.2305,4640
12.2363,4825
12.242,5042
12.2477,3619
12.2534,5415
12.2591,5525
12.2649,4250
12.2706,4835
12.2763,4739
12.282,4607
12.2877,4614
12.2935,4827
12.2992,4434
12.3049,5018
12.3106,5382
12.3164,5176
12.3221,5247
12.3278,4124
12.3335,3779
12.3392,5858
12.345,4528
12.3507,4581
12.3564,3667
12.3621,4609
12.3679,3728
12.3736,4809
12.3793,4992
12.385,4648
12.3907,4937
12.3965,5524
12.4022,4879
12.4079,4960
12.4136,5027
12.4194,5206
12.4251,5002
12.4308,4610
12.4365,4582
12.4422,5193
12.448,5599
12.4537,5352
12.4594,5720
12.4651,8243
12.4709,8118
12.4766,9953
12.4823,9261
12.488,9073
12.4937,8674
12.4995,8061
12.5052,9734
12.5109,10664
12.5166,12612
12.5223,19274
12.5281,30560
12.5338,40277
12.5395,44961
12.5452,45454
12.551,43443
12.5567,41230
12.5624,37581
12.5681,35799
12.5738,34037
12.5796,31570
12.5853,29172
12.591,26306
12.5967,24189
12.6025,24188
12.6082,21288
12.6139,20903
12.6196,18799
12.6253,20377
12.6311,19605
12.6368,17745
12.6425,16633
12.6482,15139
12.654,15298
12.6597,15229
12.6654,14532
12.6711,14460
12.6768,14271
12.6826,13639
12.6883,14143
12.694,14207
12.6997,13823
12.7055,13534
12.7112,16005
12.7169,16603
12.7226,18307
12.7283,20218
12.7341,19347
12.7398,20839
12.7455,17667
12.7512,15234
12.757,14696
12.7627,16188
12.7684,15720
12.7741,14314
12.7798,14364
12.7856,12722
12.7913,12731
12.797,11666
12.8027,11660
12.8084,12443
12.8142,12278
12.8199,10518
12.8256,9849
12.8313,10485
12.8371,10813
12.8428,10417
12.8485,10000
12.8542,9231
12.8599,9632
12.8657,9929
12.8714,10114
12.8771,11540
12.8828,11925
12.8886,12731
12.8943,11679
12.9,11806
12.9057,9813
12.9114,9768
12.9172,9077
12.9229,8903
12.9286,8473
12.9343,8502
12.9401,8031
12.9458,8768
12.9515,8309
12.9572,8470
12.9629,8475
12.9687,8672
12.9744,8544
12.9801,8374
12.9858,7881
12.9916,8770
12.9973,8441
13.003,7788
13.0087,9087
13.0144,8272
13.0202,7981
13.0259,7788
13.0316,7530
13.0373,7707
13.043,7166
13.0488,8116
13.0545,7499
13.0602,7284
13.0659,7852
13.0717,7355
13.0774,8191
13.0831,7371
13.0888,8056
13.0945,7755
13.1003,8259
13.106,7608
13.1117,7705
13.1174,7273
13.1232,7899
13.1289,6346
13.1346,8011
13.1403,7207
13.146,6633
13.1518,7430
13.1575,7500
13.1632,7024
13.1689,7313
13.1747,7177
13.1804,7411
13.1861,7907
13.1918,6971
13.1975,7944
13.2033,6855
13.209,7316
13.2147,7043
13.2204,6395
13.2262,7369
13.2319,5767
13.2376,8128
13.2433,6895
13.249,6196
13.2548,7086
13.2605,7103
13.2662,7249
13.2719,6457
13.2776,8222
13.2834,7426
13.2891,7096
13.2948,7302
13.3005,7780
13.3063,7230
13.312,7600
13.3177,7354
13.3234,5615
13.3291,6708
13.3349,7777
13.3406,7311
13.3463,8027
13.352,9045
13.3578,8543
13.3635,7475
13.3692,7153
13.3749,8031
13.3806,7619
13.3864,8459
13.3921,7208
13.3978,6408
13.4035,7652
13.4093,8013
13.415,8474
13.4207,8521
13.4264,8145
13.4321,8726
13.4379,7970
13.4436,8552
13.4493,8574
13.455,7092
13.4608,7797
13.4665,8514
13.4722,8221
13.4779,7887
13.4836,7440
13.4894,8399
13.4951,7888
13.5008,8735
13.5065,7384
13.5123,7678
13.518,7628
13.5237,9264
13.5294,7853
13.5351,8173
13.5409,7767
13.5466,7569
13.5523,7714
13.558,7398
13.5637,8248
13.5695,7732
13.5752,8258
13.5809,8245
13.5866,7743
13.5924,7539
13.5981,6196
13.6038,7219
13.6095,9122
13.6152,8251
13.621,8287
13.6267,8129
13.6324,7586
13.6381,7606
13.6439,7310
13.6496,7749
13.6553,8087
13.661,7612
13.6667,7717
13.6725,8869
13.6782,7591
13.6839,7931
13.6896,7352
13.6954,7832
13.7011,8345
13.7068,7232
13.7125,7519
13.7182,6532
13.724,8361
13.7297,7902
13.7354,7971
13.7411,8003
13.7469,7335
13.7526,8037
13.7583,8160
13.764,7726
13.7697,7539
13.7755,6933
13.7812,6951
13.7869,7492
13.7926,7969
13.7983,6992
13.8041,8017
13.8098,7519
13.8155,7590
13.8212,7344
13.827,7672
13.8327,8053
13.8384,8736
13.8441,7581
13.8498,7404
13.8556,7030
13.8613,7341
13.867,7862
13.8727,7169
13.8785,7022
13.8842,7559
13.8899,7125
13.8956,7379
13.9013,7582
13.9071,7015
13.9128,8307
13.9185,8434
13.9242,7163
13.93,6458
13.9357,8679
13.9414,8435
13.9471,9294
13.9528,10571
13.9586,10132
13.9643,10640
13.97,10176
13.9757,9502
13.9815,7774
13.9872,8204
13.9929,8135
13.9986,6812
14.0043,7089
14.0101,7250
14.0158,7820
14.0215,7932
14.0272,8340
14.0329,8710
14.0387,7459
14.0444,7840
14.0501,7542
14.0558,7468
14.0616,7345
14.0673,8003
14.073,8399
14.0787,7376
14.0844,7606
14.0902,7194
14.0959,7513
14.1016,8218
14.1073,7598
14.1131,7554
14.1188,7468
14.1245,7033
14.1302,6623
14.1359,7744
14.1417,7266
14.1474,7455
14.1531,8962
14.1588,7390
14.1646,8651
14.1703,8354
14.176,8247
14.1817,8240
14.1874,7078
14.1932,8040
14.1989,8215
14.2046,7553
14.2103,7728
14.2161,8415
14.2218,7279
14.2275,8068
14.2332,8747
14.2389,8517
14.2447,8327
14.2504,7278
14.2561,8445
14.2618,8727
14.2676,7740
14.2733,7872
14.279,8492
14.2847,8746
14.2904,7744
14.2962,8086
14.3019,9191
14.3076,8288
14.3133,8764
14.319,8342
14.3248,8673
14.3305,8289
14.3362,8335
14.3419,8337
14.3477,8660
14.3534,8735
14.3591,7582
14.3648,8098
14.3705,9022
14.3763,8150
14.382,8091
14.3877,7243
14.3934,7696
14.3992,7376
14.4049,8680
14.4106,8832
14.4163,8145
14.422,8044
14.4278,7204
14.4335,8016
14.4392,8487
14.4449,8572
14.4507,9372
14.4564,9274
14.4621,8829
14.4678,8718
14.4735,9580
14.4793,8543
14.485,7522
14.4907,9236
14.4964,9551
14.5022,9459
14.5079,9755
14.5136,9675
14.5193,9057
14.525,10108
14.5308,8506
14.5365,8896
14.5422,8797
14.5479,8735
14.5536,8734
14.5594,7866
14.5651,8648
14.5708,9183
14.5765,8623
14.5823,8922
14.588,9249
14.5937,9387
14.5994,7729
14.6051,9209
14.6109,9642
14.6166,9123
14.6223,9504
14.628,8536
14.6338,9818
14.6395,9073
14.6452,9916
14.6509,9683
14.6566,9676
14.6624,9626
14.6681,9722
14.6738,9707
14.6795,9566
14.6853,10041
14.691,10099
14.6967,10547
14.7024,9507
14.7081,9760
14.7139,9300
14.7196,9717
14.7253,10134
14.731,9889
14.7368,8932
14.7425,9155
14.7482,9608
14.7539,10296
14.7596,8821
14.7654,10320
14.7711,9811
14.7768,10475
14.7825,11260
14.7882,8714
14.794,9249
14.7997,11009
14.8054,10102
14.8111,9531
14.8169,10616
14.8226,10731
14.8283,11353
14.834,10892
14.8397,10736
14.8455,10921
14.8512,10131
14.8569,10601
14.8626,10196
14.8684,11396
14.8741,12262
14.8798,10415
14.8855,10906
14.8912,11460
14.897,10967
14.9027,12860
14.9084,13595
14.9141,12532
14.9199,12821
14.9256,12759
14.9313,13098
14.937,12201
14.9427,14228
14.9485,14790
14.9542,14228
14.9599,13748
14.9656,12845
14.9714,11718
14.9771,11884
14.9828,10536
14.9885,11582
14.9942,12183
15,11939
15.0057,11687
15.0114,10708
15.0171,11747
15.0229,12166
15.0286,11863
15.0343,11520
15.04,11326
15.0457,10867
15.0515,11488
15.0572,11949
15.0629,11816
15.0686,12310
15.0743,10493
15.0801,12035
15.0858,12207
15.0915,10883
15.0972,10587
15.103,11669
15.1087,11907
15.1144,12174
15.1201,12246
15.1258,11529
15.1316,10938
15.1373,12560
15.143,11724
15.1487,12456
15.1545,12588
15.1602,11517
15.1659,11312
15.1716,11540
15.1773,12491
15.1831,10811
15.1888,13378
15.1945,11805
15.2002,13575
15.206,11040
15.2117,13315
15.2174,11659
15.2231,12489
15.2288,13325
15.2346,11382
15.2403,12492
15.246,12455
15.2517,14364
15.2575,13777
15.2632,14725
15.2689,13069
15.2746,14026
15.2803,12671
15.2861,13370
15.2918,12160
15.2975,13625
15.3032,13646
15.3089,13009
15.3147,13454
15.3204,13871
15.3261,12372
15.3318,12556
15.3376,14069
15.3433,13382
15.349,13937
15.3547,14163
15.3604,13992
15.3662,15094
15.3719,14253
15.3776,14665
15.3833,14259
15.3891,14618
15.3948,15920
15.4005,13769
15.4062,14373
15.4119,15394
15.4177,14827
15.4234,14777
15.4291,14232
15.4348,13040
15.4406,15179
15.4463,16286
15.452,15595
15.4577,14160
15.4634,14301
15.4692,16280
15.4749,15172
15.4806,15055
15.4863,14421
15.4921,15270
15.4978,13741
15.5035,15674
15.5092,16549
15.5149,14465
15.5207,15334
15.5264,16742
15.5321,15505
15.5378,16935
15.5436,15427
15.5493,14500
15.555,16926
15.5607,16661
15.5664,17434
15.5722,17379
15.5779,17215
15.5836,16285
15.5893,16735
15.595,16716
15.6008,14861
15.6065,16836
15.6122,16415
15.6179,15485
15.6237,16234
15.6294,16293
15.6351,17578
15.6408,16529
15.6465,17154
15.6523,16648
15.658,17618
15.6637,17491
15.6694,17686
15.6752,17410
15.6809,17293
15.6866,18972
15.6923,16990
15.698,16919
15.7038,18378
15.7095,17126
15.7152,17310
15.7209,18383
15.7267,18629
15.7324,17559
15.7381,17411
15.7438,18962
15.7495,16747
15.7553,16908
15.761,17641
15.7667,17944
15.7724,18798
15.7782,18808
15.7839,19420
15.7896,16697
15.7953,17664
15.801,18186
15.8068,18507
15.8125,19989
15.8182,19129
15.8239,17274
15.8296,19501
15.8354,18061
15.8411,19083
15.8468,19647
15.8525,20446
15.8583,20430
15.864,21639
15.8697,23373
15.8754,23984
15.8811,24478
15.8869,22285
15.8926,24184
15.8983,22260
15.904,20585
15.9098,18659
15.9155,21213
15.9212,21904
15.9269,20378
15.9326,21068
15.9384,19930
15.9441,20384
15.9498,21269
15.9555,21331
15.9613,20540
15.967,21018
15.9727,21252
15.9784,22001
15.9841,22390
15.9899,23451
15.9956,22238
16.0013,22058
16.007,23432
16.0128,24269
16.0185,23177
16.0242,23459
16.0299,23101
16.0356,23181
16.0414,22960
16.0471,21820
16.0528,22381
16.0585,23183
16.0642,23430
16.07,24613
16.0757,23762
16.0814,23176
16.0871,22994
16.0928,23344
16.0986,24124
16.1043,24784
16.11,24188
16.1157,23900
16.1215,25475
16.1272,24584
16.1329,23785
16.1386,24616
16.1443,23849
16.1501,24077
16.1558,26086
16.1615,25463
16.1672,25293
16.173,26962
16.1787,25795
16.1844,26764
16.1901,25423
16.1959,26418
16.2016,25891
16.2073,26405
16.213,27682
16.2187,26626
16.2245,28027
16.2302,25971
16.2359,25971
16.2416,25857
16.2474,25951
16.2531,26533
16.2588,28547
16.2645,27041
16.2702,26626
16.276,27098
16.2817,27528
16.2874,27040
16.2931,26969
16.2989,28302
16.3046,28753
16.3103,28781
16.316,27353
16.3217,27731
16.3274,30020
16.3332,26282
16.3389,28938
16.3446,27359
16.3503,29023
16.3561,28261
16.3618,27075
16.3675,28389
16.3732,28110
16.379,28435
16.3847,29370
16.3904,28415
16.3961,30740
16.4018,29500
16.4076,30197
16.4133,27936
16.419,29574
16.4247,28992
16.4305,30252
16.4362,30530
16.4419,30208
16.4476,31458
16.4533,29865
16.4591,29481
16.4648,30526
16.4705,30977
16.4762,31244
16.482,31013
16.4877,29696
16.4934,31316
16.4991,31858
16.5048,31348
16.5105,32048
16.5163,34596
16.522,31008
16.5277,32383
16.5334,33139
16.5392,31886
16.5449,32048
16.5506,30375
16.5563,31614
16.562,32890
16.5678,31226
16.5735,33085
16.5792,32901
16.5849,33539
16.5907,33587
16.5964,33942
16.6021,33556
16.6078,33695
16.6136,33285
16.6193,35339
16.625,35488
16.6307,34450
16.6364,33124
16.6422,35751
16.6479,35553
16.6536,34852
16.6593,34738
16.6651,35864
16.6708,35408
16.6765,34979
16.6822,36408
16.6879,37021
16.6937,36367
16.6994,35833
16.7051,36778
16.7108,36411
16.7166,35765
16.7223,36182
16.728,36098
16.7337,37730
16.7394,37132
16.7451,39142
16.7509,42025
16.7566,41477
16.7623,40789
16.768,40520
16.7738,39719
16.7795,37415
16.7852,38848
16.7909,37862
16.7967,39042
16.8024,39681
16.8081,40282
16.8138,39570
16.8195,39258
16.8253,38753
16.831,39572
16.8367,39634
16.8424,37968
16.8482,41032
16.8539,40535
16.8596,41379
16.8653,39655
16.871,40259
16.8768,40885
16.8825,41070
16.8882,41072
16.8939,42359
16.8997,38077
16.9054,42876
16.9111,41654
16.9168,39656
16.9225,42654
16.9283,40475
16.934,41193
16.9397,41796
16.9454,43022
16.9511,42574
16.9569,42394
16.9626,41382
16.9683,43232
16.974,44280
16.9797,43455
16.9855,42731
16.9912,42344
16.9969,42397
17.0026,44074
17.0084,43444
17.0141,44075
17.0198,45464
17.0255,44012
17.0313,42327
17.037,45800
17.0427,45423
17.0484,44256
17.0542,46515
17.0599,45416
17.0656,45204
17.0713,46197
17.077,44667
17.0828,43945
17.0885,44858
17.0942,46456
17.0999,46085
17.1056,43756
17.1114,46980
17.1171,44320
17.1228,46264
17.1285,47495
17.1343,44946
17.14,47748
17.1457,45011
17.1514,47539
17.1571,47134
17.1629,47218
17.1686,47970
17.1743,47364
17.18,48094
17.1857,49214
17.1915,47243
17.1972,47690
17.2029,46015
17.2086,49186
17.2144,47397
17.2201,47938
17.2258,47886
17.2315,48147
17.2373,46831
17.243,46956
17.2487,47316
17.2544,47674
17.2601,47456
17.2659,49581
17.2716,48307
17.2773,50539
17.283,48360
17.2888,47476
17.2945,50986
17.3002,48071
17.3059,49727
17.3116,47797
17.3174,50083
17.3231,49460
17.3288,48665
17.3345,50038
17.3402,49224
17.346,51698
17.3517,49486
17.3574,52523
17.3631,51276
17.3688,52022
17.3746,50978
17.3803,50914
17.386,51142
17.3917,53791
17.3975,52347
17.4032,52593
17.4089,50748
17.4146,52491
17.4203,52923
17.4261,52253
17.4318,53679
17.4375,51113
17.4432,51025
17.449,51827
17.4547,51809
17.4604,51466
17.4661,53519
17.4719,51423
17.4776,53249
17.4833,52569
17.489,52479
17.4947,51547
17.5005,52035
17.5062,50026
17.5119,52616
17.5176,52099
17.5234,51922
17.5291,52003
17.5348,52571
17.5405,51899
17.5462,52428
17.552,54175
17.5577,52439
17.5634,52821
17.5691,53354
17.5748,55114
17.5806,53587
17.5863,51731
17.592,53977
17.5977,58018
17.6035,56552
17.6092,56325
17.6149,53512
17.6206,55716
17.6263,54230
17.6321,55484
17.6378,54529
17.6435,52628
17.6492,53682
17.6549,51792
17.6607,53336
17.6664,54675
17.6721,56115
17.6778,53259
17.6836,55537
17.6893,56067
17.695,55626
17.7007,53890
17.7065,53840
17.7122,55607
17.7179,54697
17.7236,53137
17.7293,55650
17.7351,54022
17.7408,56203
17.7465,55233
17.7522,54450
17.758,53733
17.7637,58165
17.7694,53464
17.7751,56838
17.7808,56361
17.7866,56052
17.7923,56829
17.798,55092
17.8037,55693
17.8095,56996
17.8152,56633
17.8209,56864
17.8266,56527
17.8323,56066
17.8381,55963
17.8438,55986
17.8495,57103
17.8552,57698
17.8609,58297
17.8667,57134
17.8724,57795
17.8781,56705
17.8838,55633
17.8896,55670
17.8953,56169
17.901,56931
17.9067,55257
17.9124,57090
17.9182,56424
17.9239,56991
17.9296,57069
17.9353,59399
17.9411,58467
17.9468,59530
17.9525,57938
17.9582,57029
17.9639,55733
17.9697,58312
17.9754,58795
17.9811,57068
17.9868,57191
17.9926,58557
