C:\MSDCHEM\1\DATA\JAMES C\20180125 LACTONE WITH BME AND HYDROXYLAMINE\A 7hr.d 25 Jan 18   9:45 pm
Start of data points
3.09248,13633
3.09822,12931
3.10393,13017
3.10965,12015
3.11538,12065
3.1211,12552
3.12682,13078
3.13253,12123
3.13827,12190
3.14398,11749
3.1497,12312
3.15543,12216
3.16115,11999
3.16687,12332
3.1726,12744
3.17832,11532
3.18403,12243
3.18977,10751
3.19548,13577
3.2012,12161
3.20693,12310
3.21265,11714
3.21837,13098
3.2241,12600
3.22982,11940
3.23553,12232
3.24127,11072
3.24698,11032
3.2527,12728
3.25842,11332
3.26415,10833
3.26987,12165
3.27558,11793
3.28132,11827
3.28703,10299
3.29275,10882
3.29848,10391
3.3042,11086
3.30992,10611
3.31565,10872
3.32137,9770
3.32708,9388
3.33282,9456
3.33853,9276
3.34425,9743
3.34998,8259
3.3557,9658
3.36142,9813
3.36715,9195
3.37287,8582
3.37858,8427
3.3843,9090
3.39003,8756
3.39575,8093
3.40147,8093
3.4072,8638
3.41292,8015
3.41863,7670
3.42437,8622
3.43008,8614
3.4358,8729
3.44153,9696
3.44725,8707
3.45297,9524
3.4587,8008
3.46442,7473
3.47013,6752
3.47587,7407
3.48158,8265
3.4873,8620
3.49303,7340
3.49875,7857
3.50447,7158
3.51018,8178
3.51592,6554
3.52163,7063
3.52735,7240
3.53308,6870
3.5388,7562
3.54452,7726
3.55025,7796
3.55597,6790
3.56168,6621
3.56742,6188
3.57313,6730
3.57885,7464
3.58458,7899
3.5903,7002
3.59602,5888
3.60175,6299
3.60747,6360
3.61318,6929
3.61892,6529
3.62463,6440
3.63035,6499
3.63607,6212
3.6418,6579
3.64752,6178
3.65323,7022
3.65897,6326
3.66468,6939
3.6704,5972
3.67613,6701
3.68185,6830
3.68757,5305
3.6933,5802
3.69902,7013
3.70473,5676
3.71047,5934
3.71618,5757
3.7219,5243
3.72763,5074
3.73335,6754
3.73907,5780
3.7448,5512
3.75052,5689
3.75623,5533
3.76195,6262
3.76768,5466
3.7734,5303
3.77912,5463
3.78485,5501
3.79057,5673
3.79628,5389
3.80202,5052
3.80773,4726
3.81345,5109
3.81918,5213
3.8249,5073
3.83062,5371
3.83635,5366
3.84207,4004
3.84778,4858
3.85352,4997
3.85923,4135
3.86495,5752
3.87068,5237
3.8764,5304
3.88212,5431
3.88783,4649
3.89357,5059
3.89928,4777
3.905,5839
3.91073,5040
3.91645,4192
3.92217,4971
3.9279,5065
3.93362,5058
3.93933,5607
3.94507,5070
3.95078,4947
3.9565,5082
3.96223,4386
3.96795,4043
3.97367,4610
3.9794,4519
3.98512,4507
3.99083,3909
3.99657,4274
4.00228,3128
4.008,4592
4.01372,3905
4.01945,3928
4.02517,4275
4.03088,5089
4.03662,3665
4.04233,4305
4.04805,4506
4.05378,4146
4.0595,4225
4.06522,4973
4.07095,5020
4.07667,4454
4.08238,4456
4.08812,3362
4.09383,4080
4.09955,4250
4.10528,4220
4.111,4145
4.11672,3719
4.12245,4043
4.12817,4972
4.13388,3481
4.1396,3530
4.14533,3742
4.15105,3898
4.15677,3732
4.1625,4875
4.16822,3597
4.17393,3762
4.17967,4730
4.18538,4545
4.1911,3549
4.19683,4319
4.20255,3707
4.20827,4967
4.214,4799
4.21972,3929
4.22543,3954
4.23117,4084
4.23688,3920
4.2426,4825
4.24833,2815
4.25405,3604
4.25977,3986
4.26548,3456
4.27122,3312
4.27693,3919
4.28265,3969
4.28838,3002
4.2941,3777
4.29982,3419
4.30555,3609
4.31127,4566
4.31698,3007
4.32272,3309
4.32843,3340
4.33415,3449
4.33988,3863
4.3456,4190
4.35132,3964
4.35705,3707
4.36277,3726
4.36848,3990
4.37422,4261
4.37993,3423
4.38565,3594
4.39137,3882
4.3971,4165
4.40282,3502
4.40853,3661
4.41427,3534
4.41998,3666
4.4257,3672
4.43143,4614
4.43715,3637
4.44287,3331
4.4486,3862
4.45432,3371
4.46003,4098
4.46577,3813
4.47148,3472
4.4772,3527
4.48293,3200
4.48865,4056
4.49437,3013
4.5001,3572
4.50582,2773
4.51153,3874
4.51725,3340
4.52298,4008
4.5287,3390
4.53442,3768
4.54015,3114
4.54587,3764
4.55158,3155
4.55732,2411
4.56303,3140
4.56875,3101
4.57448,4219
4.5802,3081
4.58592,3292
4.59165,3621
4.59737,2985
4.60308,2440
4.60882,3852
4.61453,2733
4.62025,3670
4.62598,3075
4.6317,2962
4.63742,3015
4.64313,3517
4.64887,3585
4.65458,3676
4.6603,2886
4.66603,2880
4.67175,2557
4.67747,3077
4.6832,2959
4.68892,3168
4.69463,3504
4.70037,3703
4.70608,3186
4.7118,3600
4.71753,3263
4.72325,2769
4.72897,3144
4.7347,2578
4.74042,2965
4.74613,3138
4.75187,2516
4.75758,2816
4.7633,2769
4.76903,2633
4.77475,2265
4.78047,3749
4.78618,2869
4.79192,3544
4.79763,3104
4.80335,2128
4.80908,2455
4.8148,2650
4.82052,3136
4.82625,3436
4.83197,2855
4.83768,2392
4.84342,4101
4.84913,2083
4.85485,2628
4.86058,2814
4.8663,2805
4.87202,2678
4.87775,2287
4.88347,2692
4.88918,2922
4.89492,2366
4.90063,2913
4.90635,3473
4.91207,2491
4.9178,2348
4.92352,3036
4.92923,2664
4.93497,3278
4.94068,2625
4.9464,2874
4.95213,3599
4.95785,3171
4.96357,2848
4.9693,3024
4.97502,2233
4.98073,1872
4.98647,3110
4.99218,2631
4.9979,3662
5.00363,2213
5.00935,2640
5.01507,2964
5.0208,2343
5.02652,3156
5.03223,2464
5.03795,2711
5.04368,3494
5.0494,2860
5.05512,2613
5.06085,2604
5.06657,2894
5.07228,2636
5.07802,2863
5.08373,3251
5.08945,2264
5.09518,2318
5.1009,2261
5.10662,2594
5.11235,2142
5.11807,2474
5.12378,2678
5.12952,2811
5.13523,2211
5.14095,2725
5.14668,2837
5.1524,1961
5.15812,3201
5.16383,2705
5.16957,2601
5.17528,3139
5.181,2428
5.18673,2733
5.19245,2668
5.19817,2148
5.2039,2734
5.20962,2564
5.21533,1839
5.22107,2180
5.22678,2758
5.2325,2121
5.23823,3391
5.24395,2435
5.24967,2895
5.2554,3398
5.26112,2144
5.26683,2326
5.27257,2946
5.27828,2934
5.284,2327
5.28972,2705
5.29545,2497
5.30117,2256
5.30688,2771
5.31262,3188
5.31833,2499
5.32405,2420
5.32978,2577
5.3355,2943
5.34122,1812
5.34695,1742
5.35267,1931
5.35838,2010
5.36412,2504
5.36983,1828
5.37555,2361
5.38128,2008
5.387,2579
5.39272,2627
5.39845,2047
5.40417,2284
5.40988,2873
5.4156,2555
5.42133,2872
5.42705,2546
5.43277,3753
5.4385,3250
5.44422,3100
5.44993,4040
5.45567,2595
5.46138,2923
5.4671,2427
5.47283,3007
5.47855,2462
5.48427,3164
5.49,2542
5.49572,1984
5.50143,2017
5.50717,2657
5.51288,2547
5.5186,2701
5.52433,3129
5.53005,2812
5.53577,3313
5.54148,2285
5.54722,2089
5.55293,1943
5.55865,2599
5.56438,2675
5.5701,2373
5.57582,2821
5.58155,2633
5.58727,1891
5.59298,2560
5.59872,2471
5.60443,2726
5.61015,2723
5.61588,2470
5.6216,2078
5.62732,1844
5.63305,2434
5.63877,2392
5.64448,2796
5.65022,1442
5.65593,2647
5.66165,1491
5.66737,2802
5.6731,2576
5.67882,2336
5.68453,2397
5.69027,2762
5.69598,2185
5.7017,2743
5.70743,2596
5.71315,2569
5.71887,2243
5.7246,2500
5.73032,2964
5.73603,2439
5.74177,2602
5.74748,2566
5.7532,2762
5.75893,2211
5.76465,1547
5.77037,2768
5.7761,2567
5.78182,2629
5.78753,1296
5.79325,2449
5.79898,1933
5.8047,2176
5.81042,1583
5.81615,1792
5.82187,2524
5.82758,1656
5.83332,1922
5.83903,1530
5.84475,2427
5.85048,2241
5.8562,1841
5.86192,2954
5.86765,1928
5.87337,2565
5.87908,1823
5.88482,2365
5.89053,1920
5.89625,2149
5.90198,1809
5.9077,2430
5.91342,2431
5.91913,1730
5.92487,2180
5.93058,1830
5.9363,2748
5.94203,2511
5.94775,2282
5.95347,2564
5.9592,2198
5.96492,2127
5.97063,2680
5.97637,1891
5.98208,2376
5.9878,2662
5.99353,2265
5.99925,2280
6.00497,2093
6.0107,2489
6.01642,2143
6.02213,2676
6.02787,1930
6.03358,1775
6.0393,1908
6.04502,1879
6.05075,1507
6.05647,1710
6.06218,2067
6.06792,2033
6.07363,1983
6.07935,1957
6.08508,2202
6.0908,2375
6.09652,2230
6.10225,2393
6.10797,1933
6.11368,1932
6.11942,2083
6.12513,1787
6.13085,1561
6.13658,2167
6.1423,1981
6.14802,2126
6.15375,2350
6.15947,2202
6.16518,2694
6.1709,2350
6.17663,1488
6.18235,1508
6.18807,2052
6.1938,1564
6.19952,1768
6.20523,2450
6.21097,2065
6.21668,1445
6.2224,1917
6.22813,1838
6.23385,1931
6.23957,1803
6.2453,1559
6.25102,2024
6.25673,2014
6.26247,1766
6.26818,2220
6.2739,2261
6.27963,2047
6.28535,2527
6.29107,2478
6.29678,1832
6.30252,1667
6.30823,2547
6.31395,2027
6.31968,1939
6.3254,2734
6.33112,2556
6.33685,2090
6.34257,2184
6.34828,1961
6.35402,2356
6.35973,2090
6.36545,1853
6.37118,1650
6.3769,2226
6.38262,2281
6.38835,1829
6.39407,2321
6.39978,1300
6.40552,2071
6.41123,1956
6.41695,1865
6.42267,1693
6.4284,1741
6.43412,1503
6.43983,2605
6.44557,2466
6.45128,1611
6.457,1916
6.46273,1466
6.46845,1495
6.47417,2266
6.4799,2341
6.48562,2370
6.49133,1982
6.49707,1971
6.50278,1214
6.5085,2554
6.51423,2046
6.51995,1789
6.52567,2331
6.5314,2155
6.53712,2150
6.54283,1392
6.54855,1815
6.55428,2659
6.56,2037
6.56572,1985
6.57145,1486
6.57717,1741
6.58288,2493
6.58862,2175
6.59433,1991
6.60005,2179
6.60578,1625
6.6115,1985
6.61722,1786
6.62295,2045
6.62867,2148
6.63438,2210
6.64012,1963
6.64583,1965
6.65155,1829
6.65728,2092
6.663,1694
6.66872,2185
6.67443,1882
6.68017,2028
6.68588,2197
6.6916,2269
6.69733,1956
6.70305,2947
6.70877,2651
6.7145,3015
6.72022,2783
6.72593,2512
6.73167,2126
6.73738,2376
6.7431,2903
6.74883,3019
6.75455,3023
6.76027,2643
6.766,3032
6.77172,2845
6.77743,2860
6.78317,2322
6.78888,2447
6.7946,2863
6.80032,2540
6.80605,2286
6.81177,1909
6.81748,2926
6.82322,2937
6.82893,2291
6.83465,2199
6.84038,2173
6.8461,1640
6.85182,2743
6.85755,2725
6.86327,2149
6.86898,2318
6.87472,2519
6.88043,2737
6.88615,2471
6.89188,2503
6.8976,2155
6.90332,2317
6.90905,2542
6.91477,2428
6.92048,1885
6.9262,3079
6.93193,2176
6.93765,2150
6.94337,2521
6.9491,2018
6.95482,2193
6.96053,2194
6.96627,2208
6.97198,1457
6.9777,1963
6.98343,2357
6.98915,1227
6.99487,2236
7.0006,1881
7.00632,2543
7.01203,2160
7.01777,2194
7.02348,1572
7.0292,2473
7.03493,2057
7.04065,2450
7.04637,2060
7.05208,2343
7.05782,1443
7.06353,2664
7.06925,2515
7.07498,1857
7.0807,1751
7.08642,2207
7.09215,1972
7.09787,2690
7.10358,2577
7.10932,3646
7.11503,5160
7.12075,6678
7.12648,6249
7.1322,6332
7.13792,5335
7.14365,5925
7.14937,5475
7.15508,5025
7.16082,3573
7.16653,4294
7.17225,3280
7.17797,2964
7.1837,3553
7.18942,3116
7.19513,3153
7.20087,2942
7.20658,3014
7.2123,3304
7.21803,3057
7.22375,2757
7.22947,2761
7.2352,1710
7.24092,2526
7.24663,2285
7.25237,2811
7.25808,2471
7.2638,2868
7.26953,2188
7.27525,2112
7.28097,2082
7.2867,2762
7.29242,2800
7.29813,4188
7.30385,4261
7.30958,5201
7.3153,3978
7.32102,3795
7.32675,3930
7.33247,3694
7.33818,2361
7.34392,2895
7.34963,2918
7.35535,2616
7.36108,2685
7.3668,2444
7.37252,2153
7.37825,2130
7.38397,2624
7.38968,1962
7.39542,3085
7.40113,2785
7.40685,2288
7.41258,2642
7.4183,2629
7.42402,2482
7.42973,2152
7.43547,2303
7.44118,2553
7.4469,2217
7.45263,2639
7.45835,2288
7.46407,2225
7.4698,2530
7.47552,2078
7.48123,2185
7.48697,2624
7.49268,2017
7.4984,2676
7.50413,2760
7.50985,1866
7.51557,2520
7.5213,2589
7.52702,2904
7.53273,2588
7.53847,2386
7.54418,2057
7.5499,2590
7.55562,2559
7.56135,3564
7.56707,2156
7.57278,2331
7.57852,2147
7.58423,2641
7.58995,2065
7.59568,2261
7.6014,2399
7.60712,2410
7.61285,2469
7.61857,2376
7.62428,2124
7.63002,2147
7.63573,2352
7.64145,2599
7.64718,2372
7.6529,2339
7.65862,2806
7.66435,2663
7.67007,2114
7.67578,2084
7.6815,2504
7.68723,2050
7.69295,2770
7.69867,3081
7.7044,2217
7.71012,2574
7.71583,2133
7.72157,2525
7.72728,3277
7.733,2640
7.73873,2798
7.74445,2468
7.75017,2719
7.7559,2317
7.76162,2327
7.76733,2554
7.77307,2850
7.77878,2742
7.7845,2488
7.79023,2743
7.79595,2332
7.80167,3004
7.80738,3103
7.81312,4095
7.81883,2901
7.82455,3178
7.83028,2339
7.836,2387
7.84172,2056
7.84745,2567
7.85317,1878
7.85888,3094
7.86462,2597
7.87033,2763
7.87605,2659
7.88178,3303
7.8875,2194
7.89322,2770
7.89895,2777
7.90467,3160
7.91038,2398
7.91612,3008
7.92183,2774
7.92755,3017
7.93327,2230
7.939,2882
7.94472,2597
7.95043,2461
7.95617,2524
7.96188,2727
7.9676,1874
7.97333,2982
7.97905,3724
7.98477,2304
7.9905,2656
7.99622,2276
8.00193,1903
8.00767,2448
8.01338,2539
8.0191,2805
8.02483,3540
8.03055,1958
8.03627,3068
8.042,3188
8.04772,3520
8.05343,2746
8.05915,3002
8.06488,2653
8.0706,2758
8.07632,2781
8.08205,2541
8.08777,2783
8.09348,1989
8.09922,2641
8.10493,2572
8.11065,2545
8.11638,2332
8.1221,3505
8.12782,2924
8.13355,2510
8.13927,3579
8.14498,3113
8.15072,2380
8.15643,2393
8.16215,2289
8.16788,2623
8.1736,3202
8.17932,2570
8.18503,3824
8.19077,2987
8.19648,3365
8.2022,2329
8.20793,2511
8.21365,2575
8.21937,2501
8.2251,2801
8.23082,1946
8.23653,2548
8.24227,2285
8.24798,2348
8.2537,2755
8.25943,2983
8.26515,2856
8.27087,2834
8.2766,2738
8.28232,1775
8.28803,3075
8.29377,2756
8.29948,3723
8.3052,2570
8.31092,2110
8.31665,2767
8.32237,3221
8.32808,3165
8.33382,3473
8.33953,3622
8.34525,2818
8.35098,2727
8.3567,2587
8.36242,3509
8.36815,3505
8.37387,2903
8.37958,3040
8.38532,2909
8.39103,2245
8.39675,2955
8.40248,2271
8.4082,3211
8.41392,3533
8.41965,2435
8.42537,2519
8.43108,2938
8.4368,2886
8.44253,2480
8.44825,3046
8.45397,3469
8.4597,2879
8.46542,2825
8.47113,2907
8.47687,3093
8.48258,3206
8.4883,2446
8.49403,3000
8.49975,2210
8.50547,2597
8.5112,2416
8.51692,3494
8.52263,2916
8.52837,3017
8.53408,2505
8.5398,2337
8.54553,3384
8.55125,2682
8.55697,3257
8.5627,3799
8.56842,1979
8.57413,2813
8.57985,3815
8.58558,2788
8.5913,3193
8.59702,2709
8.60275,3487
8.60847,3006
8.61418,3693
8.61992,2294
8.62563,3351
8.63135,3666
8.63708,3421
8.6428,2313
8.64852,2954
8.65425,3605
8.65997,2767
8.66568,2744
8.67142,2857
8.67713,3386
8.68285,3193
8.68858,3653
8.6943,2801
8.70002,2526
8.70573,2991
8.71147,2877
8.71718,3668
8.7229,3660
8.72863,2910
8.73435,2942
8.74007,3471
8.7458,3225
8.75152,2251
8.75723,3546
8.76297,3106
8.76868,2219
8.7744,3130
8.78013,2342
8.78585,2868
8.79157,2773
8.7973,2668
8.80302,3083
8.80873,2696
8.81447,3248
8.82018,3030
8.8259,2606
8.83162,3423
8.83735,2459
8.84307,3044
8.84878,3351
8.85452,3224
8.86023,3624
8.86595,3312
8.87168,3638
8.8774,3781
8.88312,3189
8.88885,2950
8.89457,2971
8.90028,3479
8.90602,3523
8.91173,2997
8.91745,3191
8.92318,2896
8.9289,3580
8.93462,3687
8.94035,3964
8.94607,2753
8.95178,2879
8.9575,3420
8.96323,3408
8.96895,3063
8.97467,3715
8.9804,3059
8.98612,3936
8.99183,5474
8.99757,5594
9.00328,4723
9.009,4435
9.01473,4314
9.02045,3827
9.02617,2507
9.0319,3413
9.03762,4159
9.04333,3218
9.04907,3178
9.05478,2754
9.0605,3464
9.06623,3355
9.07195,3544
9.07767,3540
9.08338,3381
9.08912,3054
9.09483,3199
9.10055,3150
9.10628,3426
9.112,3892
9.11772,4033
9.12345,3918
9.12917,4044
9.13488,3011
9.14062,3115
9.14633,2905
9.15205,3106
9.15778,3622
9.1635,4058
9.16922,2772
9.17495,3332
9.18067,3926
9.18638,3214
9.19212,3370
9.19783,2939
9.20355,3911
9.20927,3174
9.215,2944
9.22072,3626
9.22643,3734
9.23217,2949
9.23788,3209
9.2436,4226
9.24933,2690
9.25505,3850
9.26077,3640
9.2665,3483
9.27222,3161
9.27793,3198
9.28367,3552
9.28938,3100
9.2951,4446
9.30083,3733
9.30655,3379
9.31227,3749
9.318,3680
9.32372,3436
9.32943,3778
9.33515,3898
9.34088,3865
9.3466,3175
9.35232,3391
9.35805,3526
9.36377,3622
9.36948,2910
9.37522,3287
9.38093,2891
9.38665,3513
9.39238,3438
9.3981,3905
9.40382,4177
9.40955,3755
9.41527,3464
9.42098,3086
9.42672,4104
9.43243,3783
9.43815,4222
9.44388,3673
9.4496,2992
9.45532,3274
9.46103,3252
9.46677,3243
9.47248,3275
9.4782,4106
9.48393,2950
9.48965,3339
9.49537,4308
9.5011,3370
9.50682,4199
9.51253,3657
9.51827,3977
9.52398,3616
9.5297,3173
9.53543,3460
9.54115,3781
9.54687,2926
9.5526,3788
9.55832,2976
9.56403,3857
9.56977,4038
9.57548,3610
9.5812,3289
9.58692,2861
9.59265,2951
9.59837,3557
9.60408,3082
9.60982,3592
9.61553,3837
9.62125,3459
9.62698,3567
9.6327,3645
9.63842,3836
9.64415,3090
9.64987,3596
9.65558,5076
9.66132,3767
9.66703,4171
9.67275,4042
9.67848,5132
9.6842,4151
9.68992,4561
9.69565,3083
9.70137,3602
9.70708,3170
9.7128,3557
9.71853,3652
9.72425,3105
9.72997,3221
9.7357,3867
9.74142,2897
9.74713,3937
9.75287,3652
9.75858,3470
9.7643,3252
9.77003,4440
9.77575,3740
9.78147,3755
9.7872,3733
9.79292,3564
9.79863,3676
9.80437,3908
9.81008,3786
9.8158,4534
9.82153,4150
9.82725,3158
9.83297,3101
9.83868,3556
9.84442,4234
9.85013,4201
9.85585,3371
9.86158,3792
9.8673,3936
9.87302,3333
9.87875,4363
9.88447,3724
9.89018,4665
9.89592,3466
9.90163,3908
9.90735,4870
9.91308,3966
9.9188,4190
9.92452,3045
9.93025,4242
9.93597,3484
9.94168,3466
9.94742,3666
9.95313,3502
9.95885,3480
9.96457,2992
9.9703,4363
9.97602,3940
9.98173,3507
9.98747,4107
9.99318,4885
9.9989,3545
10.0046,3717
10.0104,4557
10.0161,4182
10.0218,3966
10.0275,3744
10.0332,3154
10.039,3715
10.0447,4427
10.0504,3536
10.0561,3577
10.0619,3072
10.0676,3181
10.0733,3799
10.079,4080
10.0847,3489
10.0905,3988
10.0962,4218
10.1019,3928
10.1076,3870
10.1134,3895
10.1191,4056
10.1248,3400
10.1305,3493
10.1362,3314
10.142,3379
10.1477,4072
10.1534,4659
10.1591,3037
10.1649,4168
10.1706,3554
10.1763,3747
10.182,3516
10.1877,4185
10.1935,4087
10.1992,3917
10.2049,3472
10.2106,4125
10.2163,3511
10.2221,5064
10.2278,3472
10.2335,3391
10.2392,4658
10.245,4371
10.2507,3516
10.2564,3966
10.2621,4165
10.2678,3518
10.2736,3180
10.2793,4402
10.285,3267
10.2907,3751
10.2965,3887
10.3022,4311
10.3079,3867
10.3136,4502
10.3193,3568
10.3251,3284
10.3308,4359
10.3365,3465
10.3422,3983
10.348,3577
10.3537,4125
10.3594,3832
10.3651,3944
10.3708,3909
10.3766,3250
10.3823,4110
10.388,4008
10.3937,3791
10.3995,3906
10.4052,3687
10.4109,3928
10.4166,3520
10.4223,3986
10.4281,4936
10.4338,5657
10.4395,6685
10.4452,4766
10.451,4534
10.4567,3870
10.4624,4009
10.4681,3087
10.4738,3584
10.4796,3658
10.4853,4592
10.491,3953
10.4967,2967
10.5024,4108
10.5082,3646
10.5139,3538
10.5196,4327
10.5253,4225
10.5311,3839
10.5368,3607
10.5425,3833
10.5482,3464
10.5539,4112
10.5597,3783
10.5654,4536
10.5711,3530
10.5768,3938
10.5826,3147
10.5883,3911
10.594,3991
10.5997,6158
10.6054,14538
10.6112,33154
10.6169,66570
10.6226,94759
10.6283,90807
10.6341,63791
10.6398,33264
10.6455,16011
10.6512,8333
10.6569,6386
10.6627,7420
10.6684,8737
10.6741,8524
10.6798,7523
10.6856,7139
10.6913,5601
10.697,4516
10.7027,5044
10.7084,4132
10.7142,3840
10.7199,3484
10.7256,3549
10.7313,4857
10.737,4074
10.7428,4131
10.7485,3763
10.7542,4620
10.7599,3978
10.7657,4471
10.7714,3854
10.7771,4650
10.7828,3938
10.7885,4412
10.7943,4709
10.8,3870
10.8057,3423
10.8114,3101
10.8172,3560
10.8229,4018
10.8286,4897
10.8343,5293
10.84,5891
10.8458,6241
10.8515,6029
10.8572,5697
10.8629,5413
10.8687,4342
10.8744,4451
10.8801,4850
10.8858,4786
10.8915,3572
10.8973,4862
10.903,3961
10.9087,4836
10.9144,3335
10.9202,3504
10.9259,3487
10.9316,4047
10.9373,4278
10.943,3634
10.9488,3480
10.9545,4366
10.9602,3381
10.9659,4716
10.9716,4067
10.9774,3951
10.9831,4300
10.9888,4272
10.9945,3712
11.0003,4046
11.006,2812
11.0117,3931
11.0174,4501
11.0231,4669
11.0289,4760
11.0346,4361
11.0403,4004
11.046,4041
11.0518,3961
11.0575,3844
11.0632,4157
11.0689,4608
11.0746,5163
11.0804,4653
11.0861,3686
11.0918,3398
11.0975,5115
11.1033,4353
11.109,4157
11.1147,4278
11.1204,4420
11.1261,3622
11.1319,4725
11.1376,4222
11.1433,4362
11.149,4762
11.1548,4725
11.1605,4401
11.1662,5266
11.1719,4308
11.1776,4296
11.1834,4739
11.1891,4900
11.1948,3839
11.2005,3810
11.2063,4606
11.212,4166
11.2177,5047
11.2234,5477
11.2291,6369
11.2349,7259
11.2406,8530
11.2463,9477
11.252,8600
11.2577,9861
11.2635,9424
11.2692,9482
11.2749,9937
11.2806,8872
11.2864,8694
11.2921,9400
11.2978,8483
11.3035,8867
11.3092,7577
11.315,8194
11.3207,8004
11.3264,7710
11.3321,9230
11.3379,7944
11.3436,7991
11.3493,7752
11.355,7860
11.3607,6410
11.3665,7684
11.3722,7159
11.3779,6659
11.3836,6778
11.3894,7297
11.3951,7572
11.4008,6665
11.4065,6704
11.4122,7467
11.418,6387
11.4237,7064
11.4294,6954
11.4351,6623
11.4409,6285
11.4466,6170
11.4523,6369
11.458,6473
11.4637,5870
11.4695,5977
11.4752,6746
11.4809,5827
11.4866,6165
11.4923,7000
11.4981,6115
11.5038,5782
11.5095,5943
11.5152,5409
11.521,6082
11.5267,5691
11.5324,5554
11.5381,5875
11.5438,6057
11.5496,5825
11.5553,5405
11.561,5958
11.5667,5338
11.5725,5121
11.5782,5782
11.5839,5551
11.5896,5374
11.5953,4824
11.6011,5077
11.6068,6012
11.6125,5951
11.6182,5996
11.624,5484
11.6297,5676
11.6354,6445
11.6411,5725
11.6468,4594
11.6526,5213
11.6583,5635
11.664,5694
11.6697,6290
11.6755,5478
11.6812,4937
11.6869,5941
11.6926,5042
11.6983,6393
11.7041,5395
11.7098,6293
11.7155,5796
11.7212,7003
11.7269,6816
11.7327,6517
11.7384,6315
11.7441,5401
11.7498,5349
11.7556,5414
11.7613,5291
11.767,5054
11.7727,4606
11.7784,5575
11.7842,5825
11.7899,5187
11.7956,4827
11.8013,4576
11.8071,4315
11.8128,5825
11.8185,5121
11.8242,5696
11.8299,5378
11.8357,4608
11.8414,5729
11.8471,5515
11.8528,5046
11.8586,5508
11.8643,5143
11.87,5293
11.8757,5110
11.8814,5416
11.8872,4178
11.8929,4932
11.8986,5914
11.9043,6005
11.9101,4821
11.9158,4322
11.9215,5531
11.9272,4223
11.9329,5289
11.9387,5249
11.9444,4654
11.9501,4654
11.9558,5438
11.9616,5029
11.9673,5754
11.973,4804
11.9787,5096
11.9844,4974
11.9902,5442
11.9959,5206
12.0016,4794
12.0073,5071
12.013,4959
12.0188,5352
12.0245,4743
12.0302,4288
12.0359,5233
12.0417,4521
12.0474,5126
12.0531,4969
12.0588,5461
12.0645,4624
12.0703,4971
12.076,5032
12.0817,4837
12.0874,5005
12.0932,4949
12.0989,5558
12.1046,4594
12.1103,6587
12.116,5709
12.1218,6762
12.1275,8105
12.1332,7245
12.1389,8181
12.1447,7264
12.1504,5711
12.1561,5600
12.1618,4820
12.1675,4966
12.1733,5069
12.179,4607
12.1847,5849
12.1904,5203
12.1962,5490
12.2019,5770
12.2076,6097
12.2133,4990
12.219,5298
12.2248,5606
12.2305,5797
12.2362,5364
12.2419,5412
12.2476,5320
12.2534,5325
12.2591,6367
12.2648,4455
12.2705,5517
12.2763,5020
12.282,5249
12.2877,5333
12.2934,4782
12.2991,5724
12.3049,6469
12.3106,5749
12.3163,6300
12.322,5534
12.3278,5556
12.3335,6343
12.3392,5764
12.3449,5321
12.3506,5263
12.3564,5783
12.3621,7111
12.3678,6153
12.3735,6412
12.3793,7015
12.385,7225
12.3907,6964
12.3964,5857
12.4021,7348
12.4079,6775
12.4136,7513
12.4193,6747
12.425,7802
12.4308,7095
12.4365,8019
12.4422,6813
12.4479,8085
12.4536,7949
12.4594,8279
12.4651,7168
12.4708,9608
12.4765,8885
12.4823,7515
12.488,9224
12.4937,8918
12.4994,8049
12.5051,8936
12.5109,9227
12.5166,9302
12.5223,8667
12.528,8196
12.5337,9322
12.5395,8534
12.5452,8980
12.5509,8151
12.5566,8740
12.5624,9297
12.5681,8716
12.5738,8764
12.5795,9421
12.5852,9115
12.591,9596
12.5967,9812
12.6024,8927
12.6081,9528
12.6139,9854
12.6196,10255
12.6253,10505
12.631,10815
12.6367,11405
12.6425,10917
12.6482,10666
12.6539,10725
12.6596,10897
12.6654,11302
12.6711,10327
12.6768,11517
12.6825,11966
12.6882,11463
12.694,11608
12.6997,12633
12.7054,10715
12.7111,11038
12.7169,10521
12.7226,9860
12.7283,10679
12.734,10189
12.7397,9168
12.7455,9475
12.7512,10349
12.7569,10300
12.7626,10288
12.7683,10059
12.7741,9090
12.7798,10208
12.7855,9374
12.7912,11037
12.797,10886
12.8027,10779
12.8084,10546
12.8141,10719
12.8198,10541
12.8256,10143
12.8313,10310
12.837,8434
12.8427,10163
12.8485,9113
12.8542,9867
12.8599,8993
12.8656,9537
12.8713,10123
12.8771,9328
12.8828,10355
12.8885,9690
12.8942,11047
12.9,11186
12.9057,11608
12.9114,11068
12.9171,10332
12.9228,9153
12.9286,10283
12.9343,8971
12.94,10223
12.9457,9222
12.9515,9442
12.9572,8964
12.9629,8719
12.9686,9214
12.9743,9093
12.9801,10045
12.9858,8363
12.9915,8390
12.9972,9759
13.0029,9868
13.0087,9073
13.0144,9724
13.0201,8254
13.0258,8343
13.0316,8967
13.0373,8445
13.043,8647
13.0487,7770
13.0544,8293
13.0602,10086
13.0659,8154
13.0716,7787
13.0773,8765
13.0831,8422
13.0888,8415
13.0945,8593
13.1002,7611
13.1059,8794
13.1117,8360
13.1174,8177
13.1231,7665
13.1288,8325
13.1346,8613
13.1403,6746
13.146,9225
13.1517,8781
13.1574,7801
13.1632,8478
13.1689,8513
13.1746,8881
13.1803,7942
13.1861,7756
13.1918,8393
13.1975,9616
13.2032,8154
13.2089,7888
13.2147,8743
13.2204,8307
13.2261,7757
13.2318,8313
13.2376,8275
13.2433,8751
13.249,8771
13.2547,8263
13.2604,8401
13.2662,7993
13.2719,8953
13.2776,8465
13.2833,7347
13.289,8246
13.2948,7778
13.3005,8764
13.3062,8701
13.3119,8395
13.3177,8955
13.3234,8645
13.3291,8074
13.3348,8670
13.3405,7970
13.3463,8956
13.352,7944
13.3577,8118
13.3634,8570
13.3692,9021
13.3749,8408
13.3806,8421
13.3863,8634
13.392,9582
13.3978,9303
13.4035,7578
13.4092,8588
13.4149,7687
13.4207,7649
13.4264,8326
13.4321,8212
13.4378,7860
13.4435,8659
13.4493,8367
13.455,8647
13.4607,8469
13.4664,8441
13.4722,9338
13.4779,8829
13.4836,8107
13.4893,7929
13.495,8620
13.5008,8421
13.5065,7948
13.5122,8695
13.5179,8558
13.5236,7715
13.5294,8726
13.5351,8694
13.5408,9209
13.5465,8665
13.5523,7467
13.558,7848
13.5637,8743
13.5694,8440
13.5751,8252
13.5809,9539
13.5866,8357
13.5923,8722
13.598,8922
13.6038,10746
13.6095,9722
13.6152,9475
13.6209,9511
13.6266,8476
13.6324,8675
13.6381,8838
13.6438,9502
13.6495,8580
13.6553,9399
13.661,8830
13.6667,8007
13.6724,8775
13.6781,9064
13.6839,8785
13.6896,9422
13.6953,8911
13.701,8386
13.7068,9502
13.7125,8443
13.7182,8556
13.7239,8556
13.7296,8245
13.7354,9093
13.7411,8167
13.7468,9465
13.7525,9068
13.7582,7840
13.764,8514
13.7697,8429
13.7754,9102
13.7811,9425
13.7869,8740
13.7926,8836
13.7983,9258
13.804,8962
13.8097,8694
13.8155,8896
13.8212,8644
13.8269,8571
13.8326,8201
13.8384,8393
13.8441,8047
13.8498,7858
13.8555,9132
13.8612,9191
13.867,8502
13.8727,7674
13.8784,9530
13.8841,8389
13.8899,9566
13.8956,8844
13.9013,8069
13.907,8046
13.9127,8984
13.9185,9400
13.9242,8256
13.9299,8775
13.9356,8382
13.9414,9251
13.9471,9632
13.9528,7864
13.9585,9224
13.9642,9647
13.97,10335
13.9757,9979
13.9814,10246
13.9871,8937
13.9929,8968
13.9986,9648
14.0043,8969
14.01,8494
14.0157,9158
14.0215,9337
14.0272,8576
14.0329,8511
14.0386,8792
14.0443,9336
14.0501,9223
14.0558,8300
14.0615,9472
14.0672,9486
14.073,9589
14.0787,9717
14.0844,9250
14.0901,8773
14.0958,8845
14.1016,9287
14.1073,9618
14.113,9249
14.1187,9026
14.1245,8276
14.1302,8980
14.1359,10560
14.1416,9042
14.1473,9397
14.1531,10703
14.1588,9349
14.1645,10597
14.1702,8821
14.176,9256
14.1817,9940
14.1874,9254
14.1931,9961
14.1988,10373
14.2046,8213
14.2103,9612
14.216,9538
14.2217,9428
14.2275,10162
14.2332,9828
14.2389,9032
14.2446,9264
14.2503,9002
14.2561,9676
14.2618,10551
14.2675,9359
14.2732,9913
14.2789,9868
14.2847,9499
14.2904,11313
14.2961,10174
14.3018,9264
14.3076,10465
14.3133,10271
14.319,10539
14.3247,9811
14.3304,10794
14.3362,10057
14.3419,9749
14.3476,9324
14.3533,9575
14.3591,10026
14.3648,9851
14.3705,9586
14.3762,9717
14.3819,9908
14.3877,9515
14.3934,10637
14.3991,11021
14.4048,10561
14.4106,11753
14.4163,11136
14.422,10782
14.4277,11005
14.4334,9892
14.4392,10578
14.4449,10588
14.4506,11149
14.4563,11035
14.4621,10606
14.4678,12130
14.4735,10649
14.4792,11180
14.4849,12084
14.4907,11206
14.4964,11666
14.5021,10792
14.5078,10956
14.5135,11180
14.5193,10607
14.525,10711
14.5307,11376
14.5364,11698
14.5422,11624
14.5479,11923
14.5536,11307
14.5593,10877
14.565,11319
14.5708,11157
14.5765,12458
14.5822,11524
14.5879,12666
14.5937,11220
14.5994,10952
14.6051,13039
14.6108,11380
14.6165,12067
14.6223,12679
14.628,11878
14.6337,12082
14.6394,12067
14.6452,12456
14.6509,11639
14.6566,12268
14.6623,11829
14.668,12495
14.6738,13159
14.6795,12564
14.6852,12510
14.6909,13350
14.6967,13193
14.7024,13524
14.7081,13368
14.7138,13887
14.7195,12294
14.7253,13941
14.731,13667
14.7367,13508
14.7424,13090
14.7482,12344
14.7539,14056
14.7596,12117
14.7653,13122
14.771,13566
14.7768,13824
14.7825,13723
14.7882,14211
14.7939,14260
14.7996,13937
14.8054,14560
14.8111,13372
14.8168,14270
14.8225,14597
14.8283,14028
14.834,14538
14.8397,14621
14.8454,14543
14.8511,13299
14.8569,14430
14.8626,14990
14.8683,15509
14.874,13298
14.8798,15228
14.8855,14575
14.8912,14693
14.8969,15540
14.9026,14366
14.9084,15538
14.9141,15992
14.9198,16123
14.9255,16605
14.9313,16880
14.937,17497
14.9427,16881
14.9484,17917
14.9541,17307
14.9599,18153
14.9656,16966
14.9713,17095
14.977,16810
14.9828,16606
14.9885,16086
14.9942,16376
14.9999,16391
15.0056,17892
15.0114,14952
15.0171,17685
15.0228,16274
15.0285,17303
15.0342,15868
15.04,18332
15.0457,17268
15.0514,15282
15.0571,16665
15.0629,17788
15.0686,17731
15.0743,19043
15.08,18298
15.0857,18081
15.0915,18003
15.0972,18273
15.1029,17357
15.1086,18359
15.1144,17966
15.1201,18504
15.1258,17797
15.1315,17963
15.1372,19251
15.143,18162
15.1487,18648
15.1544,19222
15.1601,18893
15.1659,18625
15.1716,17871
15.1773,18221
15.183,18928
15.1887,18772
15.1945,19355
15.2002,19749
15.2059,19609
15.2116,19407
15.2174,19078
15.2231,18972
15.2288,19382
15.2345,19602
15.2402,20697
15.246,18599
15.2517,19617
15.2574,19674
15.2631,20206
15.2688,19728
15.2746,20725
15.2803,20836
15.286,20816
15.2917,21041
15.2975,20577
15.3032,21692
15.3089,23156
15.3146,21337
15.3203,20924
15.3261,22323
15.3318,20413
15.3375,22811
15.3432,21749
15.349,20682
15.3547,21768
15.3604,21769
15.3661,21298
15.3718,22071
15.3776,21222
15.3833,23303
15.389,22389
15.3947,22145
15.4005,23422
15.4062,24849
15.4119,22472
15.4176,23631
15.4233,24355
15.4291,25191
15.4348,25212
15.4405,24350
15.4462,22855
15.452,24508
15.4577,25091
15.4634,24411
15.4691,23497
15.4748,23566
15.4806,24532
15.4863,23862
15.492,24342
15.4977,24506
15.5035,24860
15.5092,24831
15.5149,26367
15.5206,25845
15.5263,25802
15.5321,26016
15.5378,26182
15.5435,27374
15.5492,26029
15.5549,24869
15.5607,25226
15.5664,25909
15.5721,26540
15.5778,26385
15.5836,27348
15.5893,25932
15.595,26368
15.6007,26013
15.6064,27385
15.6122,26793
15.6179,26915
15.6236,26821
15.6293,29078
15.6351,28771
15.6408,26727
15.6465,26838
15.6522,28634
15.6579,26283
15.6637,27787
15.6694,27992
15.6751,27871
15.6808,27031
15.6866,29451
15.6923,28153
15.698,27532
15.7037,28717
15.7094,27661
15.7152,29158
15.7209,28865
15.7266,29818
15.7323,30226
15.7381,30247
15.7438,29569
15.7495,31716
15.7552,30594
15.7609,29359
15.7667,29874
15.7724,31686
15.7781,32096
15.7838,31321
15.7895,28548
15.7953,29716
15.801,32709
15.8067,32952
15.8124,31987
15.8182,30718
15.8239,33323
15.8296,31163
15.8353,32475
15.841,32266
15.8468,33373
15.8525,31884
15.8582,34048
15.8639,33555
15.8697,34865
15.8754,33984
15.8811,34764
15.8868,35826
15.8925,35231
15.8983,35343
15.904,34333
15.9097,35046
15.9154,35639
15.9212,34706
15.9269,35222
15.9326,36665
15.9383,34821
15.944,35651
15.9498,33423
15.9555,36686
15.9612,36540
15.9669,36155
15.9727,35546
15.9784,36122
15.9841,36311
15.9898,35856
15.9955,37445
16.0012,37540
16.007,35909
16.0127,38147
16.0184,37145
16.0241,36935
16.0299,38920
16.0356,38223
16.0413,38065
16.047,37285
16.0528,37796
16.0585,38008
16.0642,38794
16.0699,39442
16.0756,39276
16.0814,38649
16.0871,36841
16.0928,37385
16.0985,40062
16.1043,40688
16.11,39691
16.1157,40299
16.1214,41812
16.1271,40808
16.1329,42463
16.1386,41622
16.1443,40901
16.15,41447
16.1558,43361
16.1615,41897
16.1672,42291
16.1729,41389
16.1786,44690
16.1843,41943
16.1901,44943
16.1958,46073
16.2015,44862
16.2072,44102
16.213,46152
16.2187,44343
16.2244,46425
16.2301,44600
16.2358,44643
16.2416,45460
16.2473,47709
16.253,44614
16.2587,43604
16.2645,46900
16.2702,45325
16.2759,46837
16.2816,47245
16.2874,47964
16.2931,46364
16.2988,46976
16.3045,48731
16.3102,47896
16.316,49439
16.3217,47877
16.3274,47084
16.3331,47962
16.3389,50053
16.3446,50514
16.3503,48521
16.356,50236
16.3617,49542
16.3675,47667
16.3732,49280
16.3789,48038
16.3846,49015
16.3904,49769
16.3961,51082
16.4018,49525
16.4075,49790
16.4132,51071
16.4189,51742
16.4247,52000
16.4304,52158
16.4361,52378
16.4418,52877
16.4476,52186
16.4533,53186
16.459,52264
16.4647,54150
16.4705,53001
16.4762,55192
16.4819,51578
16.4876,53648
16.4934,54304
16.4991,55196
16.5048,55542
16.5105,55211
16.5162,55517
16.522,57793
16.5277,58146
16.5334,56292
16.5391,57047
16.5448,58083
16.5506,56762
16.5563,58400
16.562,58500
16.5677,57867
16.5735,56950
16.5792,59032
16.5849,61279
16.5906,61948
16.5963,60161
16.6021,57473
16.6078,59992
16.6135,59749
16.6192,60754
16.6249,57669
16.6307,61250
16.6364,61514
16.6421,60263
16.6478,59818
16.6536,58809
16.6593,61432
16.665,61527
16.6707,61801
16.6764,61743
16.6822,64402
16.6879,63469
16.6936,65097
16.6993,65526
16.7051,65769
16.7108,64830
16.7165,63775
16.7222,64587
16.728,66466
16.7337,65670
16.7394,66050
16.7451,63360
16.7508,65489
16.7566,67894
16.7623,68412
16.768,72353
16.7737,72760
16.7795,69339
16.7852,70012
16.7909,70529
16.7966,68689
16.8023,67814
16.8081,69349
16.8138,69334
16.8195,69675
16.8252,71673
16.8309,73065
16.8367,70422
16.8424,73413
16.8481,71373
16.8538,72727
16.8595,72697
16.8653,72060
16.871,73759
16.8767,72694
16.8824,75837
16.8882,75002
16.8939,74842
16.8996,75433
16.9053,75601
16.911,77132
16.9168,74544
16.9225,78062
16.9282,76634
16.9339,78577
16.9397,80291
16.9454,78463
16.9511,78275
16.9568,79329
16.9626,77284
16.9683,80073
16.974,79602
16.9797,81587
16.9854,81683
16.9912,82597
16.9969,81002
17.0026,78684
17.0083,79725
17.0141,82018
17.0198,81183
17.0255,85774
17.0312,80697
17.0369,82854
17.0426,81556
17.0484,83941
17.0541,83759
17.0598,83100
17.0655,85956
17.0713,84544
17.077,84822
17.0827,85972
17.0884,88293
17.0941,85066
17.0999,85020
17.1056,84346
17.1113,83608
17.117,85270
17.1228,87289
17.1285,87433
17.1342,90962
17.1399,89251
17.1457,89673
17.1514,93388
17.1571,88668
17.1628,89645
17.1685,89861
17.1743,85694
17.18,87913
17.1857,90225
17.1914,90797
17.1972,89013
17.2029,88685
17.2086,90727
17.2143,89467
17.22,90058
17.2258,95615
17.2315,93621
17.2372,91076
17.2429,90536
17.2487,93199
17.2544,91169
17.2601,93240
17.2658,92396
17.2715,94230
17.2772,94873
17.283,94873
17.2887,91947
17.2944,90781
17.3001,95494
17.3059,95472
17.3116,97610
17.3173,97645
17.323,92708
17.3287,93778
17.3345,92805
17.3402,93751
17.3459,95122
17.3516,95340
17.3574,96573
17.3631,97662
17.3688,98701
17.3745,98240
17.3803,94294
17.386,98248
17.3917,97628
17.3974,96465
17.4031,97775
17.4089,99672
17.4146,96550
17.4203,99036
17.426,97504
17.4318,97854
17.4375,98112
17.4432,98963
17.4489,98350
17.4546,99375
17.4603,99944
17.4661,99263
17.4718,98637
17.4775,98137
17.4833,100079
17.489,97421
17.4947,97586
17.5004,99018
17.5061,98932
17.5119,101679
17.5176,100571
17.5233,103764
17.529,103086
17.5348,100902
17.5405,101139
17.5462,101310
17.5519,100892
17.5576,101171
17.5634,100478
17.5691,101760
17.5748,102620
17.5805,101277
17.5862,101900
17.592,98838
17.5977,96860
17.6034,102202
17.6091,105996
17.6149,104928
17.6206,102917
17.6263,102503
17.632,104443
17.6377,101996
17.6435,100670
17.6492,102054
17.6549,103965
17.6606,104907
17.6664,101837
17.6721,102435
17.6778,104594
17.6835,102326
17.6892,104401
17.695,102382
17.7007,104542
17.7064,102874
17.7121,102507
17.7179,103950
17.7236,105738
17.7293,103207
17.735,102933
17.7407,102339
17.7464,104411
17.7522,106744
17.7579,106621
17.7636,104770
17.7693,105551
17.7751,107315
17.7808,105530
17.7865,102485
17.7922,103970
17.798,105420
17.8037,103455
17.8094,106249
17.8151,103106
17.8208,106904
17.8266,104287
17.8323,105085
17.838,105041
17.8437,108746
17.8495,108157
17.8552,106863
17.8609,105951
17.8666,105411
17.8723,107636
17.8781,105964
17.8838,108231
17.8895,107148
17.8952,106018
17.901,110342
17.9067,108853
17.9124,108921
17.9181,105953
17.9238,106217
17.9296,108301
17.9353,105253
17.941,106367
17.9467,105651
17.9525,107186
17.9582,109710
17.9639,110140
17.9696,109571
17.9753,111112
17.9811,106883
17.9868,106290
17.9925,108054
