C:\MSDCHEM\1\DATA\JAMES C\20180125 LACTONE WITH BME AND HYDROXYLAMINE\D 20min.d 25 Jan 18   4:39 pm
Start of data points
3.09268,14050
3.09842,13586
3.10413,15232
3.10985,14442
3.11558,14779
3.1213,13738
3.12702,14667
3.13275,13992
3.13847,13039
3.14418,13791
3.14992,15147
3.15563,15071
3.16135,14834
3.16708,15012
3.1728,14465
3.17852,14345
3.18425,14111
3.18997,14679
3.19568,13143
3.20142,14764
3.20713,15503
3.21285,15090
3.21857,14350
3.2243,14762
3.23002,15088
3.23573,14368
3.24147,14755
3.24718,13172
3.2529,14965
3.25863,13989
3.26435,14133
3.27007,13648
3.2758,12299
3.28152,14351
3.28723,12848
3.29297,12974
3.29868,12630
3.3044,11673
3.31013,11754
3.31585,12316
3.32157,11962
3.3273,11461
3.33302,11701
3.33873,11829
3.34445,11608
3.35018,10566
3.3559,10183
3.36162,10023
3.36735,9273
3.37307,10256
3.37878,9367
3.38452,10096
3.39023,10463
3.39595,8929
3.40168,9789
3.4074,11038
3.41312,9629
3.41885,9249
3.42457,9636
3.43028,9146
3.43602,9072
3.44173,8751
3.44745,8994
3.45318,9397
3.4589,9461
3.46462,8555
3.47033,8203
3.47607,8450
3.48178,8610
3.4875,9255
3.49323,9202
3.49895,8338
3.50467,8575
3.5104,8098
3.51612,8541
3.52183,9299
3.52757,7797
3.53328,7685
3.539,8019
3.54473,7265
3.55045,7733
3.55617,8049
3.5619,7595
3.56762,8062
3.57333,9166
3.57907,7516
3.58478,8263
3.5905,7988
3.59622,7475
3.60195,6864
3.60767,7708
3.61338,7240
3.61912,7949
3.62483,7006
3.63055,7504
3.63628,7290
3.642,7880
3.64772,7539
3.65345,6733
3.65917,7847
3.66488,6242
3.67062,7067
3.67633,6426
3.68205,6859
3.68778,6988
3.6935,7201
3.69922,8007
3.70495,6841
3.71067,6261
3.71638,6730
3.7221,7280
3.72783,6897
3.73355,7360
3.73927,6222
3.745,5686
3.75072,6444
3.75643,6423
3.76217,5920
3.76788,6032
3.7736,6238
3.77933,6863
3.78505,5739
3.79077,6537
3.7965,5987
3.80222,6987
3.80793,5653
3.81367,7019
3.81938,6202
3.8251,6191
3.83083,6003
3.83655,6803
3.84227,6644
3.84798,5696
3.85372,5257
3.85943,6296
3.86515,7126
3.87088,5657
3.8766,6141
3.88232,5392
3.88805,5642
3.89377,5073
3.89948,5604
3.90522,6848
3.91093,5811
3.91665,5466
3.92238,6073
3.9281,6039
3.93382,6184
3.93955,4818
3.94527,5170
3.95098,4376
3.95672,5332
3.96243,5623
3.96815,5275
3.97387,5523
3.9796,5262
3.98532,5881
3.99103,5767
3.99677,5134
4.00248,5235
4.0082,6258
4.01393,6122
4.01965,5187
4.02537,5722
4.0311,4712
4.03682,5816
4.04253,4987
4.04827,5404
4.05398,5260
4.0597,5407
4.06543,4922
4.07115,5472
4.07687,5262
4.0826,6346
4.08832,5513
4.09403,4704
4.09975,5009
4.10548,5604
4.1112,5057
4.11692,4070
4.12265,5190
4.12837,4789
4.13408,5261
4.13982,5395
4.14553,4732
4.15125,5161
4.15698,4549
4.1627,4598
4.16842,4982
4.17415,4619
4.17987,5459
4.18558,5038
4.19132,5697
4.19703,6102
4.20275,5459
4.20848,4289
4.2142,4348
4.21992,4215
4.22563,4462
4.23137,4551
4.23708,5393
4.2428,4859
4.24853,3952
4.25425,4546
4.25997,5122
4.2657,4313
4.27142,3560
4.27713,4525
4.28287,4449
4.28858,3858
4.2943,5013
4.30003,4693
4.30575,4721
4.31147,4429
4.3172,3837
4.32292,3660
4.32863,4286
4.33437,4490
4.34008,4347
4.3458,5089
4.35152,3802
4.35725,4354
4.36297,4957
4.36868,4886
4.37442,4534
4.38013,3358
4.38585,4323
4.39158,4326
4.3973,4403
4.40302,3700
4.40875,3575
4.41447,4500
4.42018,3376
4.42592,4044
4.43163,3964
4.43735,4123
4.44308,3469
4.4488,3920
4.45452,4672
4.46025,4275
4.46597,4390
4.47168,3886
4.4774,3685
4.48313,4297
4.48885,3901
4.49457,5255
4.5003,3447
4.50602,4265
4.51173,4437
4.51747,3959
4.52318,3974
4.5289,4053
4.53463,4038
4.54035,4673
4.54607,4483
4.5518,4323
4.55752,4011
4.56323,3417
4.56897,3626
4.57468,3759
4.5804,4594
4.58613,5038
4.59185,4624
4.59757,4581
4.60328,4426
4.60902,3530
4.61473,4193
4.62045,4007
4.62618,3926
4.6319,3548
4.63762,3437
4.64335,3689
4.64907,2892
4.65478,3729
4.66052,3922
4.66623,4103
4.67195,4044
4.67768,3182
4.6834,4492
4.68912,3573
4.69485,3279
4.70057,3595
4.70628,3250
4.71202,3172
4.71773,3863
4.72345,3981
4.72917,3605
4.7349,3787
4.74062,3928
4.74633,3487
4.75207,3871
4.75778,3801
4.7635,3882
4.76923,3154
4.77495,3646
4.78067,3800
4.7864,4082
4.79212,3757
4.79783,3823
4.80357,3647
4.80928,3992
4.815,3597
4.82073,2939
4.82645,3624
4.83217,3433
4.8379,3322
4.84362,3261
4.84933,3831
4.85505,3137
4.86078,3956
4.8665,3877
4.87222,3495
4.87795,3196
4.88367,3762
4.88938,3162
4.89512,3671
4.90083,3565
4.90655,3155
4.91228,3234
4.918,3469
4.92372,3676
4.92945,2797
4.93517,3247
4.94088,3274
4.94662,2920
4.95233,3303
4.95805,3449
4.96378,3672
4.9695,2835
4.97522,3702
4.98093,3365
4.98667,3572
4.99238,3755
4.9981,3679
5.00383,3673
5.00955,3667
5.01527,4018
5.021,2352
5.02672,3433
5.03243,3021
5.03817,3079
5.04388,3145
5.0496,3071
5.05533,3861
5.06105,3252
5.06677,3093
5.0725,3530
5.07822,3211
5.08393,3391
5.08967,3690
5.09538,3462
5.1011,3043
5.10682,3150
5.11255,2994
5.11827,3226
5.12398,2597
5.12972,2768
5.13543,3319
5.14115,3005
5.14688,3402
5.1526,3128
5.15832,2735
5.16405,2863
5.16977,2950
5.17548,2173
5.18122,3145
5.18693,2563
5.19265,3063
5.19838,3195
5.2041,2710
5.20982,2897
5.21555,2821
5.22127,3046
5.22698,2923
5.2327,3740
5.23843,2860
5.24415,2885
5.24987,2700
5.2556,2334
5.26132,2631
5.26703,3486
5.27277,2947
5.27848,3827
5.2842,3017
5.28993,2969
5.29565,3286
5.30137,2680
5.3071,2364
5.31282,2724
5.31853,3405
5.32427,3356
5.32998,2952
5.3357,3180
5.34143,2880
5.34715,3438
5.35287,2634
5.35858,2301
5.36432,3612
5.37003,3441
5.37575,2300
5.38148,2588
5.3872,3072
5.39292,3303
5.39865,2685
5.40437,3715
5.41008,2869
5.41582,3825
5.42153,3637
5.42725,5199
5.43298,3641
5.4387,4441
5.44442,4274
5.45015,3296
5.45587,4365
5.46158,4317
5.46732,3924
5.47303,3636
5.47875,3020
5.48447,3772
5.4902,3684
5.49592,3364
5.50163,3609
5.50737,3479
5.51308,3764
5.5188,3191
5.52453,3838
5.53025,3295
5.53597,2966
5.5417,3072
5.54742,3552
5.55313,2203
5.55887,3094
5.56458,4008
5.5703,2782
5.57603,3300
5.58175,2955
5.58747,2590
5.5932,2838
5.59892,3090
5.60463,2720
5.61035,2923
5.61608,2831
5.6218,2916
5.62752,2418
5.63325,2630
5.63897,2864
5.64468,2228
5.65042,2638
5.65613,2190
5.66185,2823
5.66758,2276
5.6733,1861
5.67902,2865
5.68475,2484
5.69047,2935
5.69618,3131
5.70192,2236
5.70763,3337
5.71335,2512
5.71908,2393
5.7248,2618
5.73052,2891
5.73623,2698
5.74197,2595
5.74768,2475
5.7534,2965
5.75913,2541
5.76485,3057
5.77057,2637
5.7763,2665
5.78202,2632
5.78773,3092
5.79347,2499
5.79918,3385
5.8049,2724
5.81063,2426
5.81635,2748
5.82207,3268
5.8278,2650
5.83352,3129
5.83923,2325
5.84497,2508
5.85068,2971
5.8564,2722
5.86212,2727
5.86785,2584
5.87357,2817
5.87928,2096
5.88502,2769
5.89073,3009
5.89645,2548
5.90218,2740
5.9079,2864
5.91362,3002
5.91935,2344
5.92507,2500
5.93078,2312
5.93652,2376
5.94223,2219
5.94795,2943
5.95368,1693
5.9594,2541
5.96512,2639
5.97085,2948
5.97657,2949
5.98228,3090
5.988,2843
5.99373,2264
5.99945,2823
6.00517,2263
6.0109,2705
6.01662,2408
6.02233,2431
6.02807,1703
6.03378,2613
6.0395,2126
6.04523,2723
6.05095,2878
6.05667,3563
6.0624,2253
6.06812,2859
6.07383,3108
6.07957,2872
6.08528,2239
6.091,2122
6.09673,2889
6.10245,2451
6.10817,3371
6.11388,2785
6.11962,2146
6.12533,2671
6.13105,2424
6.13678,2456
6.1425,2994
6.14822,2198
6.15395,3563
6.15967,2216
6.16538,2948
6.17112,1865
6.17683,2688
6.18255,2875
6.18828,2699
6.194,2471
6.19972,2161
6.20545,2658
6.21117,3071
6.21688,2122
6.22262,2712
6.22833,2429
6.23405,2616
6.23977,2385
6.2455,2798
6.25122,3057
6.25693,2282
6.26267,1945
6.26838,2641
6.2741,3154
6.27983,2100
6.28555,2190
6.29127,2571
6.297,2730
6.30272,2240
6.30843,2833
6.31417,3149
6.31988,1743
6.3256,2808
6.33133,3283
6.33705,2081
6.34277,2648
6.3485,2808
6.35422,1901
6.35993,2715
6.36565,2390
6.37138,2505
6.3771,2359
6.38282,1739
6.38855,2297
6.39427,2356
6.39998,2481
6.40572,2332
6.41143,2673
6.41715,2355
6.42288,2374
6.4286,2796
6.43432,2577
6.44005,2892
6.44577,2692
6.45148,2246
6.45722,2264
6.46293,2525
6.46865,2300
6.47438,2709
6.4801,2652
6.48582,3120
6.49153,1736
6.49727,2162
6.50298,2146
6.5087,2112
6.51443,2163
6.52015,3011
6.52587,2281
6.5316,2321
6.53732,2146
6.54303,2145
6.54877,2148
6.55448,2120
6.5602,2987
6.56593,2459
6.57165,2593
6.57737,2687
6.5831,2507
6.58882,2105
6.59453,2741
6.60027,2819
6.60598,2182
6.6117,2249
6.61742,1876
6.62315,1615
6.62887,3249
6.63458,2659
6.64032,2893
6.64603,1714
6.65175,2361
6.65748,2677
6.6632,2602
6.66892,2473
6.67465,2633
6.68037,2845
6.68608,2250
6.69182,2910
6.69753,2967
6.70325,2557
6.70898,2518
6.7147,3130
6.72042,2985
6.72615,3210
6.73187,3556
6.73758,2659
6.7433,2762
6.74903,3228
6.75475,2313
6.76047,3380
6.7662,3161
6.77192,3774
6.77763,3007
6.78337,3167
6.78908,2931
6.7948,3865
6.80053,3125
6.80625,3904
6.81197,2438
6.8177,2402
6.82342,3043
6.82913,2823
6.83487,2653
6.84058,3380
6.8463,2072
6.85203,2702
6.85775,2104
6.86347,2504
6.8692,2580
6.87492,2786
6.88063,2953
6.88635,2105
6.89208,2640
6.8978,3130
6.90352,1904
6.90925,3011
6.91497,2899
6.92068,2261
6.92642,2398
6.93213,2549
6.93785,3262
6.94358,2742
6.9493,2417
6.95502,3084
6.96075,2540
6.96647,2909
6.97218,2645
6.97792,2798
6.98363,1795
6.98935,2483
6.99508,2652
7.0008,2310
7.00652,2088
7.01223,1977
7.01797,2189
7.02368,2380
7.0294,2799
7.03513,2479
7.04085,1226
7.04657,2049
7.0523,2390
7.05802,2220
7.06373,2546
7.06947,2796
7.07518,2664
7.0809,2787
7.08663,2590
7.09235,3220
7.09807,3485
7.1038,4758
7.10952,4882
7.11523,6833
7.12097,7312
7.12668,7564
7.1324,7818
7.13812,8112
7.14385,6509
7.14957,5949
7.15528,6324
7.16102,6312
7.16673,5320
7.17245,4775
7.17818,4191
7.1839,3706
7.18962,4212
7.19535,4091
7.20107,4262
7.20678,3887
7.21252,3640
7.21823,3349
7.22395,3361
7.22968,4028
7.2354,3142
7.24112,2449
7.24685,3432
7.25257,3305
7.25828,2558
7.264,2462
7.26973,2998
7.27545,2671
7.28117,2886
7.2869,3520
7.29262,3559
7.29833,4026
7.30407,6050
7.30978,6890
7.3155,8482
7.32123,7036
7.32695,6820
7.33267,6484
7.3384,4803
7.34412,4235
7.34983,4068
7.35557,3577
7.36128,3163
7.367,3189
7.37273,3521
7.37845,3081
7.38417,2879
7.38988,3032
7.39562,2690
7.40133,2659
7.40705,2888
7.41278,2825
7.4185,2716
7.42422,2069
7.42995,3275
7.43567,2505
7.44138,2761
7.44712,3023
7.45283,2695
7.45855,2259
7.46428,2113
7.47,3257
7.47572,2585
7.48145,1980
7.48717,2343
7.49288,2539
7.49862,3102
7.50433,2222
7.51005,3053
7.51577,2552
7.5215,2708
7.52722,3047
7.53293,3223
7.53867,2135
7.54438,2551
7.5501,2809
7.55583,3154
7.56155,3166
7.56727,2661
7.573,2904
7.57872,2719
7.58443,2815
7.59017,2503
7.59588,2394
7.6016,2109
7.60733,2645
7.61305,2977
7.61877,2449
7.6245,2365
7.63022,2839
7.63593,2597
7.64165,2022
7.64738,1785
7.6531,2655
7.65882,2774
7.66455,2732
7.67027,2426
7.67598,3824
7.68172,3681
7.68743,3374
7.69315,3567
7.69888,3106
7.7046,3986
7.71032,3259
7.71605,3134
7.72177,3270
7.72748,3150
7.73322,3970
7.73893,3535
7.74465,3660
7.75038,4119
7.7561,3274
7.76182,3101
7.76753,3557
7.77327,2579
7.77898,4107
7.7847,3525
7.79043,3162
7.79615,3208
7.80187,2483
7.8076,2593
7.81332,3036
7.81903,2384
7.82477,1837
7.83048,3555
7.8362,2142
7.84193,2615
7.84765,2361
7.85337,2965
7.8591,3385
7.86482,3026
7.87053,2688
7.87627,2658
7.88198,2919
7.8877,2550
7.89342,3043
7.89915,3808
7.90487,3324
7.91058,2706
7.91632,3558
7.92203,2813
7.92775,3131
7.93348,2498
7.9392,3422
7.94492,3487
7.95065,3280
7.95637,3435
7.96208,3785
7.96782,3389
7.97353,3583
7.97925,3456
7.98498,4272
7.9907,3284
7.99642,2882
8.00215,3392
8.00787,3334
8.01358,2931
8.0193,3791
8.02503,2950
8.03075,3072
8.03647,2966
8.0422,3280
8.04792,3489
8.05363,3220
8.05937,3315
8.06508,3060
8.0708,3104
8.07653,3763
8.08225,3346
8.08797,3278
8.0937,3051
8.09942,4291
8.10513,3130
8.11087,2447
8.11658,3086
8.1223,3104
8.12803,3173
8.13375,3205
8.13947,3356
8.14518,2154
8.15092,3355
8.15663,3059
8.16235,3100
8.16808,4207
8.1738,2972
8.17952,3147
8.18525,3680
8.19097,2620
8.19668,2514
8.20242,3294
8.20813,3417
8.21385,3960
8.21958,3143
8.2253,3089
8.23102,3360
8.23675,3383
8.24247,2676
8.24818,3752
8.25392,2816
8.25963,2752
8.26535,3068
8.27107,3493
8.2768,2997
8.28252,3522
8.28823,3109
8.29397,3705
8.29968,3625
8.3054,3441
8.31113,3011
8.31685,2957
8.32257,2935
8.3283,3602
8.33402,3771
8.33973,2339
8.34547,3777
8.35118,2595
8.3569,3115
8.36263,2945
8.36835,3047
8.37407,3683
8.3798,3474
8.38552,3621
8.39123,2957
8.39695,4061
8.40268,3533
8.4084,4116
8.41412,3653
8.41985,3655
8.42557,2856
8.43128,2736
8.43702,2987
8.44273,3743
8.44845,3192
8.45418,3923
8.4599,3195
8.46562,3429
8.47135,3300
8.47707,2879
8.48278,3291
8.48852,2541
8.49423,2989
8.49995,3412
8.50568,3862
8.5114,3223
8.51712,3713
8.52283,3911
8.52857,3156
8.53428,3060
8.54,3491
8.54573,3126
8.55145,3277
8.55717,4002
8.5629,2841
8.56862,3534
8.57433,3661
8.58007,3489
8.58578,3229
8.5915,4452
8.59723,3969
8.60295,3177
8.60867,3374
8.6144,3560
8.62012,2981
8.62583,2593
8.63157,4100
8.63728,2985
8.643,3529
8.64872,2634
8.65445,3935
8.66017,4144
8.66588,3015
8.67162,2672
8.67733,2430
8.68305,3064
8.68878,3952
8.6945,3299
8.70022,4148
8.70595,3937
8.71167,3330
8.71738,4150
8.72312,3543
8.72883,3343
8.73455,3404
8.74028,3050
8.746,3812
8.75172,3296
8.75745,3645
8.76317,3531
8.76888,4028
8.7746,3529
8.78033,4134
8.78605,3205
8.79177,3817
8.7975,3018
8.80322,3804
8.80893,3304
8.81467,3708
8.82038,3855
8.8261,3822
8.83183,3191
8.83755,4384
8.84327,3794
8.849,4024
8.85472,3688
8.86043,4205
8.86617,3615
8.87188,3407
8.8776,4693
8.88333,4404
8.88905,4099
8.89477,4008
8.90048,4454
8.90622,4504
8.91193,4234
8.91765,4378
8.92338,3715
8.9291,3946
8.93482,3397
8.94055,3680
8.94627,3451
8.95198,3476
8.95772,4159
8.96343,3502
8.96915,4305
8.97488,4344
8.9806,4198
8.98632,5967
8.99205,9256
8.99777,10136
9.00348,8906
9.00922,7995
9.01493,6213
9.02065,4933
9.02637,4201
9.0321,5466
9.03782,4616
9.04353,3247
9.04927,4146
9.05498,3318
9.0607,3407
9.06643,5060
9.07215,3949
9.07787,4801
9.0836,4127
9.08932,3158
9.09503,4615
9.10077,4020
9.10648,3954
9.1122,4455
9.11793,3281
9.12365,3843
9.12937,3708
9.1351,4597
9.14082,3542
9.14653,4150
9.15225,3884
9.15798,2551
9.1637,3644
9.16942,3319
9.17515,4133
9.18087,3483
9.18658,4065
9.19232,3447
9.19803,3654
9.20375,3796
9.20948,4356
9.2152,3868
9.22092,3555
9.22665,3771
9.23237,3798
9.23808,3666
9.24382,3328
9.24953,2780
9.25525,3831
9.26098,3496
9.2667,4142
9.27242,3316
9.27813,4538
9.28387,3660
9.28958,3769
9.2953,3662
9.30103,4107
9.30675,3963
9.31247,3732
9.3182,3839
9.32392,4095
9.32963,4557
9.33537,3745
9.34108,4166
9.3468,3125
9.35253,3382
9.35825,4280
9.36397,4115
9.3697,4116
9.37542,4008
9.38113,4114
9.38687,4317
9.39258,4182
9.3983,4847
9.40402,3473
9.40975,3532
9.41547,3452
9.42118,3749
9.42692,3743
9.43263,4223
9.43835,4625
9.44408,4328
9.4498,3918
9.45552,4049
9.46125,3680
9.46697,3630
9.47268,3983
9.47842,3531
9.48413,4049
9.48985,3852
9.49558,3842
9.5013,3966
9.50702,3586
9.51275,3266
9.51847,3742
9.52418,4297
9.5299,3855
9.53563,4100
9.54135,3656
9.54707,3965
9.5528,4682
9.55852,3405
9.56423,4707
9.56997,4775
9.57568,3784
9.5814,4660
9.58713,3788
9.59285,4573
9.59857,4071
9.6043,4249
9.61002,4013
9.61573,5127
9.62147,3596
9.62718,3962
9.6329,4018
9.63863,3536
9.64435,4133
9.65007,3947
9.65578,4465
9.66152,4762
9.66723,4726
9.67295,3984
9.67868,5400
9.6844,4555
9.69012,5426
9.69585,4820
9.70157,4972
9.70728,4741
9.71302,4938
9.71873,4367
9.72445,3736
9.73018,4791
9.7359,4450
9.74162,4215
9.74735,4006
9.75307,4377
9.75878,4767
9.76452,3874
9.77023,3966
9.77595,3588
9.78167,4097
9.7874,3869
9.79312,4543
9.79883,4651
9.80457,3694
9.81028,4189
9.816,4873
9.82173,4621
9.82745,3996
9.83317,4795
9.8389,3957
9.84462,4333
9.85033,4183
9.85607,4387
9.86178,3750
9.8675,4285
9.87323,4560
9.87895,4830
9.88467,4772
9.8904,3719
9.89612,4082
9.90183,4488
9.90755,4040
9.91328,3267
9.919,4657
9.92472,4507
9.93045,4297
9.93617,3605
9.94188,4609
9.94762,3666
9.95333,4267
9.95905,4025
9.96478,4241
9.9705,4390
9.97622,4097
9.98195,5289
9.98767,4547
9.99338,3618
9.99912,4215
10.0048,4230
10.0106,4730
10.0163,5024
10.022,4261
10.0277,4885
10.0334,3930
10.0392,4126
10.0449,4413
10.0506,4186
10.0563,3653
10.0621,4384
10.0678,4694
10.0735,4945
10.0792,3563
10.0849,4148
10.0907,4067
10.0964,4314
10.1021,5086
10.1078,4443
10.1136,4152
10.1193,4532
10.125,4451
10.1307,4552
10.1364,4056
10.1422,4653
10.1479,4737
10.1536,5326
10.1593,3701
10.1651,3912
10.1708,4303
10.1765,4314
10.1822,4474
10.1879,4112
10.1937,4122
10.1994,4859
10.2051,4401
10.2108,3347
10.2166,4607
10.2223,3889
10.228,3945
10.2337,4176
10.2394,4413
10.2452,3431
10.2509,4398
10.2566,4444
10.2623,4016
10.2681,4082
10.2738,3964
10.2795,3810
10.2852,3941
10.2909,4562
10.2967,4195
10.3024,5202
10.3081,4374
10.3138,4715
10.3195,4177
10.3253,4769
10.331,4107
10.3367,4333
10.3424,4290
10.3482,4872
10.3539,5017
10.3596,4465
10.3653,4782
10.371,4161
10.3768,4329
10.3825,4667
10.3882,4134
10.3939,4035
10.3997,4216
10.4054,4322
10.4111,4452
10.4168,4663
10.4225,5338
10.4283,6398
10.434,9731
10.4397,9797
10.4454,8489
10.4512,7793
10.4569,6071
10.4626,4658
10.4683,4574
10.474,4833
10.4798,3961
10.4855,4080
10.4912,4177
10.4969,4441
10.5027,5022
10.5084,3939
10.5141,4854
10.5198,4552
10.5255,4994
10.5313,3976
10.537,4408
10.5427,5285
10.5484,4138
10.5541,3627
10.5599,4470
10.5656,4302
10.5713,3781
10.577,4158
10.5828,4231
10.5885,4425
10.5942,4781
10.5999,5907
10.6056,12089
10.6114,33229
10.6171,82851
10.6228,150149
10.6285,191084
10.6343,177516
10.64,123964
10.6457,65020
10.6514,29469
10.6571,13568
10.6629,9129
10.6686,10590
10.6743,12564
10.68,13964
10.6858,12328
10.6915,9609
10.6972,7541
10.7029,6266
10.7086,5769
10.7144,4807
10.7201,4386
10.7258,5411
10.7315,5493
10.7373,5185
10.743,5044
10.7487,4615
10.7544,5190
10.7601,4585
10.7659,4517
10.7716,4059
10.7773,5356
10.783,5070
10.7888,4869
10.7945,4581
10.8002,3724
10.8059,6024
10.8116,5180
10.8174,3730
10.8231,4542
10.8288,3829
10.8345,5848
10.8402,7349
10.846,8676
10.8517,8146
10.8574,7846
10.8631,7492
10.8689,6102
10.8746,5113
10.8803,4699
10.886,4783
10.8917,5454
10.8975,4540
10.9032,5373
10.9089,4706
10.9146,5277
10.9204,4758
10.9261,5756
10.9318,5384
10.9375,4668
10.9432,5717
10.949,4304
10.9547,5500
10.9604,4359
10.9661,4431
10.9719,4763
10.9776,4191
10.9833,5066
10.989,4850
10.9947,3828
11.0005,5348
11.0062,4803
11.0119,4955
11.0176,5027
11.0234,5382
11.0291,5077
11.0348,6225
11.0405,5275
11.0462,5886
11.052,4523
11.0577,4181
11.0634,4349
11.0691,6009
11.0748,5708
11.0806,3587
11.0863,5713
11.092,5017
11.0977,5351
11.1035,5209
11.1092,4918
11.1149,5215
11.1206,5124
11.1263,5539
11.1321,6047
11.1378,4756
11.1435,5589
11.1492,4206
11.155,5443
11.1607,4941
11.1664,4787
11.1721,4662
11.1778,5285
11.1836,4955
11.1893,5068
11.195,4810
11.2007,5488
11.2065,4602
11.2122,6100
11.2179,5562
11.2236,6129
11.2293,6171
11.2351,6663
11.2408,7217
11.2465,8390
11.2522,8500
11.258,8900
11.2637,8352
11.2694,8581
11.2751,9023
11.2808,8848
11.2866,9041
11.2923,10003
11.298,9983
11.3037,8886
11.3094,8168
11.3152,8973
11.3209,7653
11.3266,7558
11.3323,8708
11.3381,8642
11.3438,8035
11.3495,7626
11.3552,7747
11.3609,7662
11.3667,7539
11.3724,7322
11.3781,7637
11.3838,7815
11.3896,7367
11.3953,8057
11.401,6990
11.4067,7202
11.4124,7082
11.4182,7294
11.4239,7225
11.4296,7062
11.4353,8303
11.4411,7347
11.4468,6447
11.4525,7560
11.4582,7233
11.4639,6835
11.4697,6456
11.4754,7153
11.4811,8525
11.4868,6789
11.4926,7541
11.4983,6300
11.504,6474
11.5097,6597
11.5154,6215
11.5212,7276
11.5269,6390
11.5326,6173
11.5383,6124
11.5441,6063
11.5498,7214
11.5555,6518
11.5612,6165
11.5669,7298
11.5727,7572
11.5784,7717
11.5841,6593
11.5898,6176
11.5955,5755
11.6013,7830
11.607,6164
11.6127,6349
11.6184,6658
11.6242,6480
11.6299,6415
11.6356,6503
11.6413,6554
11.647,6029
11.6528,6910
11.6585,6652
11.6642,6914
11.6699,6647
11.6757,5469
11.6814,6584
11.6871,6933
11.6928,6146
11.6985,6246
11.7043,6437
11.71,7601
11.7157,8571
11.7214,8866
11.7272,10472
11.7329,8534
11.7386,7212
11.7443,6471
11.75,6944
11.7558,5760
11.7615,6070
11.7672,6267
11.7729,5796
11.7787,7398
11.7844,5848
11.7901,6752
11.7958,6549
11.8015,6777
11.8073,6477
11.813,5813
11.8187,6258
11.8244,6114
11.8301,5716
11.8359,5589
11.8416,5838
11.8473,5910
11.853,6638
11.8588,6025
11.8645,5264
11.8702,6219
11.8759,5529
11.8816,6093
11.8874,5820
11.8931,6506
11.8988,6880
11.9045,5948
11.9103,6194
11.916,6201
11.9217,5864
11.9274,6188
11.9331,6122
11.9389,5944
11.9446,6318
11.9503,6386
11.956,5520
11.9618,5642
11.9675,6161
11.9732,6669
11.9789,5775
11.9846,5353
11.9904,5819
11.9961,6365
12.0018,6633
12.0075,6472
12.0133,5829
12.019,6653
12.0247,7063
12.0304,6207
12.0361,5764
12.0419,5990
12.0476,6682
12.0533,6638
12.059,6334
12.0647,7000
12.0705,5792
12.0762,6645
12.0819,5873
12.0876,5687
12.0934,6068
12.0991,5999
12.1048,6378
12.1105,7151
12.1162,7119
12.122,7491
12.1277,9296
12.1334,12684
12.1391,13207
12.1449,14101
12.1506,10184
12.1563,9266
12.162,6846
12.1677,7335
12.1735,6254
12.1792,7123
12.1849,6793
12.1906,6957
12.1964,5857
12.2021,5591
12.2078,6699
12.2135,6932
12.2192,6098
12.225,6362
12.2307,6574
12.2364,5822
12.2421,6357
12.2479,6383
12.2536,6978
12.2593,6300
12.265,6411
12.2707,6438
12.2765,6291
12.2822,7479
12.2879,6484
12.2936,7512
12.2994,7015
12.3051,7888
12.3108,8538
12.3165,8327
12.3222,8000
12.328,6855
12.3337,7430
12.3394,6881
12.3451,7589
12.3508,6324
12.3566,7162
12.3623,7859
12.368,8071
12.3737,7837
12.3795,6920
12.3852,8492
12.3909,6814
12.3966,7419
12.4023,8084
12.4081,8660
12.4138,9332
12.4195,7962
12.4252,9702
12.431,9525
12.4367,8341
12.4424,8781
12.4481,9647
12.4538,11600
12.4596,10144
12.4653,10162
12.471,9633
12.4767,9761
12.4825,10640
12.4882,9679
12.4939,9411
12.4996,10936
12.5053,10881
12.5111,9745
12.5168,9603
12.5225,10514
12.5282,10457
12.534,10380
12.5397,10901
12.5454,10622
12.5511,11085
12.5568,10284
12.5626,10820
12.5683,10102
12.574,9464
12.5797,10237
12.5854,9825
12.5912,11103
12.5969,9915
12.6026,11040
12.6083,10545
12.6141,10499
12.6198,10828
12.6255,10038
12.6312,11241
12.6369,11649
12.6427,11659
12.6484,11734
12.6541,12357
12.6598,12413
12.6656,11980
12.6713,11628
12.677,12695
12.6827,12383
12.6884,11997
12.6942,11065
12.6999,11669
12.7056,10780
12.7113,11352
12.7171,11375
12.7228,10773
12.7285,10744
12.7342,10971
12.7399,11063
12.7457,11429
12.7514,11507
12.7571,11276
12.7628,10398
12.7686,11120
12.7743,10203
12.78,10564
12.7857,10722
12.7914,11239
12.7972,11620
12.8029,12254
12.8086,10689
12.8143,11048
12.82,11180
12.8258,10904
12.8315,10688
12.8372,10681
12.8429,10875
12.8487,11177
12.8544,10652
12.8601,11026
12.8658,11071
12.8715,9653
12.8773,10206
12.883,11019
12.8887,11279
12.8944,12719
12.9002,14574
12.9059,12416
12.9116,12547
12.9173,11930
12.923,11482
12.9288,12011
12.9345,10818
12.9402,10798
12.9459,11338
12.9517,11996
12.9574,11133
12.9631,10601
12.9688,11064
12.9745,9366
12.9803,10402
12.986,11068
12.9917,11544
12.9974,10052
13.0032,11408
13.0089,11836
13.0146,10098
13.0203,10713
13.026,10420
13.0318,9807
13.0375,10377
13.0432,9826
13.0489,10327
13.0547,10175
13.0604,10123
13.0661,11016
13.0718,8170
13.0775,9596
13.0833,10035
13.089,9820
13.0947,10676
13.1004,10142
13.1061,10118
13.1119,10075
13.1176,10616
13.1233,10308
13.129,9186
13.1348,9989
13.1405,10274
13.1462,10247
13.1519,9604
13.1576,10341
13.1634,9810
13.1691,10741
13.1748,10085
13.1805,10030
13.1863,10245
13.192,9264
13.1977,8942
13.2034,9072
13.2091,9583
13.2149,11353
13.2206,9794
13.2263,9538
13.232,10092
13.2378,9859
13.2435,10660
13.2492,9356
13.2549,9885
13.2606,9843
13.2664,9364
13.2721,10326
13.2778,8950
13.2835,9042
13.2893,9944
13.295,9102
13.3007,9907
13.3064,9637
13.3121,11413
13.3179,10443
13.3236,10710
13.3293,10464
13.335,10257
13.3407,9803
13.3465,10480
13.3522,10726
13.3579,10143
13.3636,9802
13.3694,9980
13.3751,9669
13.3808,9612
13.3865,9529
13.3922,10405
13.398,10351
13.4037,10070
13.4094,10922
13.4151,9577
13.4209,10773
13.4266,10254
13.4323,10086
13.438,10265
13.4437,10433
13.4495,11184
13.4552,9864
13.4609,10491
13.4666,11725
13.4724,10713
13.4781,10155
13.4838,10181
13.4895,9887
13.4952,9627
13.501,10163
13.5067,11072
13.5124,11528
13.5181,9717
13.5239,9913
13.5296,10786
13.5353,10922
13.541,10311
13.5467,10544
13.5525,11581
13.5582,10397
13.5639,10218
13.5696,11051
13.5753,10919
13.5811,11111
13.5868,11428
13.5925,12221
13.5982,11863
13.604,12208
13.6097,11732
13.6154,10616
13.6211,11417
13.6268,10794
13.6326,11248
13.6383,10828
13.644,11670
13.6497,10654
13.6555,12394
13.6612,9922
13.6669,11469
13.6726,10838
13.6783,10508
13.6841,11411
13.6898,11363
13.6955,10305
13.7012,11337
13.707,10895
13.7127,11551
13.7184,11025
13.7241,9930
13.7298,10509
13.7356,9149
13.7413,10260
13.747,10469
13.7527,10982
13.7585,10424
13.7642,10456
13.7699,10267
13.7756,10622
13.7813,9887
13.7871,10108
13.7928,11806
13.7985,10869
13.8042,11578
13.81,10234
13.8157,10312
13.8214,10025
13.8271,11590
13.8328,10582
13.8386,10931
13.8443,9563
13.85,11247
13.8557,10017
13.8614,11842
13.8672,10336
13.8729,11470
13.8786,10868
13.8843,10747
13.8901,10966
13.8958,10772
13.9015,11048
13.9072,10765
13.9129,12111
13.9187,11140
13.9244,12099
13.9301,10924
13.9358,10437
13.9416,10924
13.9473,11421
13.953,12197
13.9587,13292
13.9644,12701
13.9702,15940
13.9759,13825
13.9816,14656
13.9873,12152
13.9931,12026
13.9988,10251
14.0045,11764
14.0102,11252
14.0159,11814
14.0217,10653
14.0274,11747
14.0331,11675
14.0388,11129
14.0446,12536
14.0503,11551
14.056,11960
14.0617,11332
14.0674,11197
14.0732,12250
14.0789,11891
14.0846,12038
14.0903,11337
14.096,11545
14.1018,10977
14.1075,11592
14.1132,10135
14.1189,11687
14.1247,11300
14.1304,11011
14.1361,12237
14.1418,11396
14.1475,11743
14.1533,12609
14.159,13504
14.1647,12813
14.1704,13961
14.1762,11879
14.1819,11628
14.1876,11940
14.1933,12700
14.199,10894
14.2048,11459
14.2105,12577
14.2162,11861
14.2219,12085
14.2277,12782
14.2334,11009
14.2391,11538
14.2448,11347
14.2505,12928
14.2563,12409
14.262,11801
14.2677,13238
14.2734,12984
14.2792,11578
14.2849,11335
14.2906,12624
14.2963,13376
14.302,13111
14.3078,12953
14.3135,12075
14.3192,12789
14.3249,13271
14.3307,12634
14.3364,12750
14.3421,12766
14.3478,13228
14.3535,13625
14.3593,12035
14.365,13345
14.3707,14214
14.3764,13362
14.3821,12815
14.3879,13783
14.3936,13679
14.3993,14174
14.405,13980
14.4108,14462
14.4165,13957
14.4222,12909
14.4279,14563
14.4336,12715
14.4394,12815
14.4451,13480
14.4508,13899
14.4565,14158
14.4623,14799
14.468,14615
14.4737,14982
14.4794,14720
14.4851,14732
14.4909,13338
14.4966,14568
14.5023,15358
14.508,14550
14.5138,14760
14.5195,14676
14.5252,14476
14.5309,13438
14.5366,15204
14.5424,15871
14.5481,16105
14.5538,15405
14.5595,15419
14.5653,14740
14.571,15405
14.5767,16897
14.5824,15815
14.5881,15147
14.5939,13923
14.5996,16247
14.6053,15167
14.611,14769
14.6167,14820
14.6225,16678
14.6282,16428
14.6339,16093
14.6396,16015
14.6454,16985
14.6511,16754
14.6568,14465
14.6625,16379
14.6682,15579
14.674,15951
14.6797,16059
14.6854,15343
14.6911,17203
14.6969,16634
14.7026,15760
14.7083,16046
14.714,15442
14.7197,16865
14.7255,17366
14.7312,18313
14.7369,17794
14.7426,17068
14.7484,16650
14.7541,17446
14.7598,17458
14.7655,17151
14.7712,18168
14.777,18040
14.7827,18196
14.7884,19074
14.7941,18244
14.7999,18225
14.8056,21041
14.8113,19467
14.817,17111
14.8227,19504
14.8285,17898
14.8342,17845
14.8399,19058
14.8456,19827
14.8513,16971
14.8571,19569
14.8628,17485
14.8685,19429
14.8742,18785
14.88,18489
14.8857,19715
14.8914,18867
14.8971,20354
14.9028,18804
14.9086,21140
14.9143,19731
14.92,19492
14.9257,20464
14.9315,21129
14.9372,20244
14.9429,21668
14.9486,21455
14.9543,23336
14.9601,25315
14.9658,24042
14.9715,24813
14.9772,23457
14.983,21970
14.9887,19944
14.9944,21202
15.0001,21067
15.0058,19414
15.0116,20806
15.0173,22470
15.023,21225
15.0287,21944
15.0345,22857
15.0402,21184
15.0459,21888
15.0516,22795
15.0573,22392
15.0631,22195
15.0688,21240
15.0745,22486
15.0802,23304
15.086,21924
15.0917,21086
15.0974,21526
15.1031,22514
15.1088,22393
15.1146,22534
15.1203,23638
15.126,24359
15.1317,24077
15.1374,24961
15.1432,24586
15.1489,24129
15.1546,24717
15.1603,23739
15.1661,22870
15.1718,25400
15.1775,25006
15.1832,24660
15.1889,26242
15.1947,24542
15.2004,24508
15.2061,25329
15.2118,27766
15.2176,26342
15.2233,24372
15.229,23525
15.2347,26763
15.2404,25875
15.2462,25102
15.2519,27172
15.2576,25848
15.2633,25225
15.2691,25047
15.2748,27222
15.2805,24339
15.2862,27160
15.2919,26720
15.2977,26990
15.3034,27781
15.3091,28853
15.3148,27242
15.3206,25112
15.3263,28425
15.332,27785
15.3377,28251
15.3434,27380
15.3492,28026
15.3549,27868
15.3606,29971
15.3663,28108
15.372,28507
15.3778,29688
15.3835,29009
15.3892,29989
15.3949,29251
15.4007,29611
15.4064,29049
15.4121,29566
15.4178,28623
15.4235,30696
15.4293,30199
15.435,31527
15.4407,30119
15.4464,30224
15.4522,31624
15.4579,30670
15.4636,30586
15.4693,31216
15.475,32194
15.4808,32025
15.4865,31829
15.4922,32412
15.4979,31721
15.5037,31665
15.5094,32616
15.5151,33911
15.5208,33626
15.5265,32926
15.5323,33339
15.538,32709
15.5437,35127
15.5494,32664
15.5552,33563
15.5609,32336
15.5666,34236
15.5723,32093
15.578,33844
15.5838,34761
15.5895,32965
15.5952,33602
15.6009,35560
15.6066,34451
15.6124,35236
15.6181,34246
15.6238,35129
15.6295,36133
15.6353,35191
15.641,35468
15.6467,35832
15.6524,36052
15.6581,37729
15.6639,37113
15.6696,35039
15.6753,36563
15.681,39918
15.6868,37407
15.6925,37216
15.6982,36578
15.7039,38004
15.7096,36861
15.7154,36914
15.7211,37566
15.7268,37329
15.7325,37457
15.7383,37224
15.744,40418
15.7497,37905
15.7554,37111
15.7611,40645
15.7669,38849
15.7726,41434
15.7783,42331
15.784,39602
15.7898,39309
15.7955,39342
15.8012,42399
15.8069,40060
15.8126,40687
15.8184,41251
15.8241,42530
15.8298,40210
15.8355,41093
15.8413,43842
15.847,41940
15.8527,43515
15.8584,41413
15.8641,45296
15.8699,43121
15.8756,46119
15.8813,46577
15.887,48089
15.8927,51227
15.8985,50573
15.9042,49786
15.9099,45629
15.9156,46044
15.9214,45868
15.9271,44534
15.9328,44382
15.9385,45586
15.9442,49007
15.95,44731
15.9557,47827
15.9614,46927
15.9671,46804
15.9729,45782
15.9786,47780
15.9843,48657
15.99,47207
15.9957,45961
16.0014,48387
16.0072,48590
16.0129,49453
16.0186,48526
16.0243,48798
16.0301,47658
16.0358,47308
16.0415,48607
16.0472,49751
16.0529,48747
16.0587,52723
16.0644,50495
16.0701,51664
16.0758,52055
16.0816,53540
16.0873,51206
16.093,49550
16.0987,52949
16.1045,52979
16.1102,51271
16.1159,52954
16.1216,54017
16.1273,53238
16.1331,55991
16.1388,52210
16.1445,51366
16.1502,52683
16.156,56161
16.1617,54727
16.1674,54129
16.1731,55877
16.1788,56653
16.1846,56920
16.1903,57651
16.196,56573
16.2017,57805
16.2075,54936
16.2132,56361
16.2189,56637
16.2246,58527
16.2303,58229
16.236,57788
16.2418,57882
16.2475,59782
16.2532,58403
16.2589,58655
16.2647,60052
16.2704,58713
16.2761,59684
16.2818,57800
16.2876,59436
16.2933,61310
16.299,59606
16.3047,61718
16.3104,61514
16.3162,59528
16.3219,60106
16.3276,63800
16.3333,62241
16.3391,60688
16.3448,62587
16.3505,61464
16.3562,64928
16.3619,63445
16.3677,65147
16.3734,63791
16.3791,64411
16.3848,66330
16.3906,65896
16.3963,65766
16.402,65876
16.4077,66690
16.4134,66037
16.4192,67085
16.4249,65446
16.4306,66904
16.4363,66820
16.442,70269
16.4478,66725
16.4535,69190
16.4592,68703
16.4649,71468
16.4707,70724
16.4764,67840
16.4821,71182
16.4878,73317
16.4935,73838
16.4993,71594
16.505,74735
16.5107,71068
16.5164,73105
16.5222,73283
16.5279,73277
16.5336,73664
16.5393,75821
16.5451,74889
16.5508,71735
16.5565,78162
16.5622,76209
16.5679,74195
16.5737,76301
16.5794,76560
16.5851,76130
16.5908,74697
16.5966,75419
16.6023,72546
16.608,75237
16.6137,74405
16.6194,77833
16.6252,78990
16.6309,77682
16.6366,80853
16.6423,79967
16.648,79543
16.6538,80607
16.6595,78940
16.6652,83328
16.6709,76985
16.6766,82407
16.6824,81934
16.6881,82158
16.6938,82751
16.6995,85848
16.7053,83596
16.711,82921
16.7167,84032
16.7224,84836
16.7281,88537
16.7339,82428
16.7396,87082
16.7453,85716
16.751,89170
16.7568,91759
16.7625,93902
16.7682,97312
16.7739,97611
16.7797,93050
16.7854,91425
16.7911,92838
16.7968,89626
16.8025,90546
16.8083,93379
16.814,90888
16.8197,91168
16.8254,90840
16.8312,90057
16.8369,94129
16.8426,91660
16.8483,93611
16.854,94106
16.8597,95168
16.8655,93395
16.8712,96801
16.8769,95241
16.8826,97180
16.8884,95241
16.8941,96092
16.8998,97439
16.9055,98252
16.9112,96838
16.917,95281
16.9227,95722
16.9284,97172
16.9341,98483
16.9399,98209
16.9456,98211
16.9513,98357
16.957,98589
16.9628,98358
16.9685,99371
16.9742,100927
16.9799,102593
16.9856,103186
16.9914,104354
16.9971,106798
17.0028,105517
17.0085,103691
17.0143,107257
17.02,104939
17.0257,108420
17.0314,106323
17.0371,106240
17.0429,104511
17.0486,105013
17.0543,106668
17.06,106798
17.0658,104054
17.0715,106268
17.0772,104482
17.0829,104930
17.0886,108251
17.0943,108415
17.1001,110032
17.1058,110992
17.1115,108467
17.1172,110666
17.123,110899
17.1287,110853
17.1344,110380
17.1401,114956
17.1458,110690
17.1516,111238
17.1573,110646
17.163,110008
17.1687,113542
17.1745,110967
17.1802,112844
17.1859,113500
17.1916,114050
17.1974,116169
17.2031,114826
17.2088,112308
17.2145,112997
17.2202,113454
17.226,116537
17.2317,112189
17.2374,117182
17.2431,115503
17.2489,114373
17.2546,116106
17.2603,116568
17.266,114794
17.2717,117923
17.2775,113267
17.2832,117820
17.2889,118720
17.2946,119333
17.3004,119267
17.3061,116920
17.3118,117021
17.3175,115674
17.3232,119179
17.3289,116147
17.3347,121598
17.3404,120426
17.3461,122483
17.3518,118120
17.3576,119825
17.3633,120456
17.369,121666
17.3747,122105
17.3805,122442
17.3862,121202
17.3919,122596
17.3976,122226
17.4033,123520
17.4091,123934
17.4148,119426
17.4205,122299
17.4262,120551
17.432,121718
17.4377,123084
17.4434,124368
17.4491,126618
17.4548,120510
17.4606,122826
17.4663,122025
17.472,121752
17.4777,125373
17.4835,124404
17.4892,126994
17.4949,125789
17.5006,129110
17.5063,124953
17.5121,127836
17.5178,125951
17.5235,126568
17.5292,127682
17.535,125243
17.5407,125081
17.5464,129934
17.5521,128379
17.5578,131678
17.5635,127488
17.5693,128467
17.575,131577
17.5807,129133
17.5864,127591
17.5922,129492
17.5979,134691
17.6036,127820
17.6093,130709
17.6151,135193
17.6208,133850
17.6265,134041
17.6322,129130
17.6379,128693
17.6437,129736
17.6494,132359
17.6551,129235
17.6608,130372
17.6666,130041
17.6723,126644
17.678,128255
17.6837,128454
17.6894,131422
17.6952,132410
17.7009,129558
17.7066,130975
17.7123,128941
17.7181,130326
17.7238,134084
17.7295,134384
17.7352,128798
17.7409,128480
17.7467,132574
17.7524,134324
17.7581,132465
17.7638,133146
17.7696,128524
17.7753,131711
17.781,133050
17.7867,131669
17.7924,131706
17.7982,133132
17.8039,133654
17.8096,132488
17.8153,129122
17.8211,126445
17.8268,134462
17.8325,131702
17.8382,131429
17.8439,129975
17.8497,130024
17.8554,136255
17.8611,133179
17.8668,130613
17.8725,137700
17.8783,135569
17.884,136234
17.8897,135322
17.8954,131947
17.9012,138292
17.9069,135656
17.9126,133627
17.9183,132758
17.924,135191
17.9298,134012
17.9355,136926
17.9412,134766
17.9469,132619
17.9527,137976
17.9584,134382
17.9641,130982
17.9698,134559
17.9755,134703
17.9813,134752
17.987,135389
17.9927,134534
