C:\MSDCHEM\1\DATA\MANDKHAI\20180626 MTH_C12COA\SLR_WT_NltAB_fresh_2_redo.d 27 Jun 18   3:53 pm
Start of data points
5.0925,0
5.09822,179
5.10395,186
5.10967,265
5.11538,0
5.12112,224
5.12683,245
5.13255,0
5.13828,186
5.144,218
5.14972,206
5.15543,262
5.16117,263
5.16688,165
5.1726,151
5.17833,0
5.18405,174
5.18977,220
5.1955,168
5.20122,0
5.20693,178
5.21267,179
5.21838,170
5.2241,162
5.22983,150
5.23555,0
5.24127,186
5.247,168
5.25272,0
5.25843,303
5.26417,151
5.26988,155
5.2756,183
5.28132,161
5.28705,158
5.29277,205
5.29848,0
5.30422,178
5.30993,0
5.31565,185
5.32138,0
5.3271,185
5.33282,174
5.33855,0
5.34427,0
5.34998,0
5.35572,0
5.36143,0
5.36715,0
5.37288,0
5.3786,200
5.38432,215
5.39005,0
5.39577,195
5.40148,170
5.4072,153
5.41293,0
5.41865,192
5.42437,176
5.4301,0
5.43582,217
5.44153,200
5.44727,179
5.45298,0
5.4587,177
5.46443,0
5.47015,167
5.47587,173
5.4816,0
5.48732,0
5.49303,177
5.49877,0
5.50448,0
5.5102,0
5.51593,0
5.52165,0
5.52737,0
5.53308,0
5.53882,0
5.54453,0
5.55025,188
5.55598,0
5.5617,0
5.56742,0
5.57315,153
5.57887,198
5.58458,159
5.59032,0
5.59603,0
5.60175,0
5.60748,159
5.6132,175
5.61892,0
5.62465,0
5.63037,0
5.63608,157
5.64182,180
5.64753,158
5.65325,0
5.65897,0
5.6647,183
5.67042,194
5.67613,0
5.68187,0
5.68758,0
5.6933,0
5.69903,162
5.70475,200
5.71047,0
5.7162,203
5.72192,0
5.72763,0
5.73337,0
5.73908,155
5.7448,0
5.75053,0
5.75625,235
5.76197,0
5.7677,162
5.77342,0
5.77913,0
5.78485,0
5.79058,0
5.7963,0
5.80202,0
5.80775,0
5.81347,0
5.81918,0
5.82492,158
5.83063,0
5.83635,0
5.84208,0
5.8478,0
5.85352,0
5.85925,0
5.86497,0
5.87068,0
5.87642,0
5.88213,0
5.88785,0
5.89358,0
5.8993,165
5.90502,0
5.91073,195
5.91647,0
5.92218,0
5.9279,0
5.93363,0
5.93935,180
5.94507,0
5.9508,0
5.95652,0
5.96223,153
5.96797,0
5.97368,0
5.9794,0
5.98513,154
5.99085,0
5.99657,0
6.0023,0
6.00802,157
6.01373,0
6.01947,0
6.02518,0
6.0309,0
6.03663,0
6.04235,0
6.04807,0
6.05378,0
6.05952,0
6.06523,0
6.07095,0
6.07668,173
6.0824,0
6.08812,0
6.09385,0
6.09957,0
6.10528,0
6.11102,0
6.11673,0
6.12245,0
6.12818,171
6.1339,0
6.13962,0
6.14535,0
6.15107,154
6.15678,0
6.16252,0
6.16823,0
6.17395,0
6.17967,0
6.1854,0
6.19112,0
6.19683,0
6.20257,0
6.20828,0
6.214,0
6.21973,175
6.22545,0
6.23117,0
6.2369,0
6.24262,0
6.24833,0
6.25407,0
6.25978,0
6.2655,0
6.27123,0
6.27695,150
6.28267,185
6.2884,0
6.29412,0
6.29983,0
6.30555,0
6.31128,0
6.317,0
6.32272,0
6.32845,0
6.33417,0
6.33988,0
6.34562,0
6.35133,0
6.35705,0
6.36278,0
6.3685,0
6.37422,0
6.37995,156
6.38567,0
6.39138,0
6.39712,0
6.40283,0
6.40855,0
6.41428,0
6.42,177
6.42572,0
6.43143,0
6.43717,161
6.44288,0
6.4486,0
6.45433,0
6.46005,0
6.46577,162
6.4715,0
6.47722,0
6.48293,0
6.48867,0
6.49438,0
6.5001,0
6.50583,0
6.51155,0
6.51727,0
6.523,0
6.52872,0
6.53443,0
6.54017,0
6.54588,0
6.5516,0
6.55732,0
6.56305,0
6.56877,178
6.57448,0
6.58022,0
6.58593,0
6.59165,0
6.59738,0
6.6031,0
6.60882,0
6.61455,0
6.62027,0
6.62598,0
6.63172,0
6.63743,0
6.64315,0
6.64888,0
6.6546,0
6.66032,181
6.66605,0
6.67177,162
6.67748,0
6.6832,0
6.68893,0
6.69465,0
6.70037,0
6.7061,0
6.71182,0
6.71753,0
6.72327,0
6.72898,230
6.7347,300
6.74043,570
6.74615,469
6.75187,655
6.7576,279
6.76332,305
6.76903,348
6.77477,228
6.78048,0
6.7862,230
6.79193,154
6.79765,164
6.80337,0
6.80908,203
6.81482,212
6.82053,0
6.82625,0
6.83198,0
6.8377,0
6.84342,0
6.84915,0
6.85487,155
6.86058,0
6.86632,0
6.87203,0
6.87775,0
6.88348,0
6.8892,0
6.89492,0
6.90065,0
6.90637,0
6.91208,0
6.91782,0
6.92353,0
6.92925,0
6.93497,0
6.9407,0
6.94642,0
6.95213,0
6.95787,0
6.96358,0
6.9693,0
6.97503,0
6.98075,0
6.98647,0
6.9922,0
6.99792,0
7.00363,0
7.00937,0
7.01508,0
7.0208,0
7.02653,0
7.03225,0
7.03797,0
7.0437,0
7.04942,0
7.05513,0
7.06085,0
7.06658,0
7.0723,0
7.07802,0
7.08375,0
7.08947,0
7.09518,0
7.10092,0
7.10663,0
7.11235,0
7.11808,0
7.1238,0
7.12952,0
7.13525,0
7.14097,184
7.14668,173
7.15242,0
7.15813,0
7.16385,0
7.16958,0
7.1753,0
7.18102,0
7.18673,0
7.19247,0
7.19818,0
7.2039,0
7.20963,0
7.21535,0
7.22107,0
7.2268,0
7.23252,0
7.23823,0
7.24397,0
7.24968,0
7.2554,0
7.26113,0
7.26685,0
7.27257,0
7.2783,0
7.28402,0
7.28973,0
7.29547,0
7.30118,0
7.3069,0
7.31262,0
7.31835,0
7.32407,0
7.32978,0
7.33552,0
7.34123,0
7.34695,0
7.35268,0
7.3584,0
7.36412,0
7.36985,0
7.37557,0
7.38128,0
7.38702,0
7.39273,0
7.39845,0
7.40418,0
7.4099,0
7.41562,0
7.42135,0
7.42707,0
7.43278,0
7.4385,0
7.44423,0
7.44995,0
7.45567,0
7.4614,0
7.46712,0
7.47283,0
7.47857,0
7.48428,154
7.49,0
7.49573,0
7.50145,0
7.50717,0
7.5129,0
7.51862,0
7.52433,0
7.53007,0
7.53578,0
7.5415,0
7.54723,0
7.55295,0
7.55867,0
7.56438,0
7.57012,0
7.57583,0
7.58155,0
7.58728,0
7.593,0
7.59872,0
7.60445,0
7.61017,0
7.61588,0
7.62162,163
7.62733,0
7.63305,0
7.63878,0
7.6445,0
7.65022,0
7.65595,0
7.66167,0
7.66738,0
7.67312,0
7.67883,0
7.68455,0
7.69027,0
7.696,0
7.70172,0
7.70743,0
7.71317,0
7.71888,0
7.7246,0
7.73033,0
7.73605,0
7.74177,0
7.7475,0
7.75322,0
7.75893,0
7.76467,0
7.77038,0
7.7761,0
7.78183,0
7.78755,0
7.79327,0
7.799,0
7.80472,0
7.81043,0
7.81615,0
7.82188,0
7.8276,0
7.83332,0
7.83905,0
7.84477,0
7.85048,0
7.85622,0
7.86193,0
7.86765,0
7.87338,0
7.8791,0
7.88482,0
7.89055,0
7.89627,0
7.90198,0
7.90772,0
7.91343,0
7.91915,0
7.92488,0
7.9306,0
7.93632,0
7.94203,0
7.94777,0
7.95348,0
7.9592,0
7.96493,0
7.97065,0
7.97637,0
7.9821,0
7.98782,0
7.99353,0
7.99927,0
8.00498,0
8.0107,0
8.01643,0
8.02215,0
8.02787,0
8.0336,0
8.03932,153
8.04503,0
8.05077,0
8.05648,0
8.0622,0
8.06792,0
8.07365,0
8.07937,0
8.08508,0
8.09082,0
8.09653,0
8.10225,0
8.10798,0
8.1137,0
8.11942,0
8.12515,0
8.13087,0
8.13658,0
8.14232,0
8.14803,0
8.15375,0
8.15948,0
8.1652,0
8.17092,0
8.17665,0
8.18237,0
8.18808,0
8.1938,0
8.19953,0
8.20525,0
8.21097,0
8.2167,0
8.22242,0
8.22813,0
8.23387,0
8.23958,0
8.2453,0
8.25103,0
8.25675,0
8.26247,0
8.2682,0
8.27392,0
8.27963,0
8.28537,0
8.29108,0
8.2968,0
8.30253,0
8.30825,0
8.31397,0
8.31968,0
8.32542,0
8.33113,0
8.33685,0
8.34258,0
8.3483,0
8.35402,0
8.35975,0
8.36547,0
8.37118,0
8.37692,0
8.38263,0
8.38835,0
8.39408,0
8.3998,0
8.40552,0
8.41125,0
8.41697,0
8.42268,0
8.42842,0
8.43413,0
8.43985,0
8.44557,0
8.4513,0
8.45702,0
8.46273,0
8.46847,185
8.47418,294
8.4799,622
8.48563,435
8.49135,370
8.49707,0
8.5028,210
8.50852,0
8.51423,0
8.51997,0
8.52568,0
8.5314,0
8.53713,0
8.54285,0
8.54857,0
8.5543,0
8.56002,0
8.56573,0
8.57145,0
8.57718,0
8.5829,0
8.58862,0
8.59435,0
8.60007,0
8.60578,0
8.61152,0
8.61723,0
8.62295,0
8.62868,0
8.6344,0
8.64012,0
8.64585,0
8.65157,0
8.65728,0
8.66302,0
8.66873,0
8.67445,0
8.68018,0
8.6859,0
8.69162,0
8.69733,0
8.70307,0
8.70878,0
8.7145,0
8.72023,0
8.72595,0
8.73167,0
8.7374,0
8.74312,0
8.74883,0
8.75457,0
8.76028,0
8.766,0
8.77173,0
8.77745,0
8.78317,0
8.7889,0
8.79462,0
8.80033,0
8.80607,0
8.81178,174
8.8175,0
8.82322,0
8.82895,0
8.83467,0
8.84038,0
8.84612,0
8.85183,0
8.85755,0
8.86328,0
8.869,0
8.87472,0
8.88045,0
8.88617,0
8.89188,0
8.89762,0
8.90333,0
8.90905,0
8.91478,0
8.9205,0
8.92622,0
8.93195,0
8.93767,0
8.94338,0
8.9491,0
8.95483,0
8.96055,0
8.96627,0
8.972,0
8.97772,0
8.98343,0
8.98917,0
8.99488,0
9.0006,0
9.00633,0
9.01205,0
9.01777,0
9.0235,0
9.02922,0
9.03493,0
9.04067,0
9.04638,0
9.0521,0
9.05783,0
9.06355,0
9.06927,0
9.07498,0
9.08072,0
9.08643,0
9.09215,0
9.09788,0
9.1036,0
9.10932,0
9.11505,0
9.12077,0
9.12648,0
9.13222,0
9.13793,0
9.14365,0
9.14938,0
9.1551,0
9.16082,0
9.16655,0
9.17227,0
9.17798,0
9.18372,0
9.18943,0
9.19515,0
9.20087,0
9.2066,0
9.21232,0
9.21803,0
9.22377,0
9.22948,0
9.2352,0
9.24093,0
9.24665,0
9.25237,0
9.2581,0
9.26382,0
9.26953,0
9.27527,0
9.28098,0
9.2867,0
9.29243,0
9.29815,0
9.30387,0
9.3096,0
9.31532,0
9.32103,0
9.32675,0
9.33248,0
9.3382,0
9.34392,0
9.34965,0
9.35537,0
9.36108,0
9.36682,0
9.37253,0
9.37825,0
9.38398,0
9.3897,0
9.39542,0
9.40115,0
9.40687,0
9.41258,0
9.41832,153
9.42403,0
9.42975,0
9.43548,0
9.4412,0
9.44692,0
9.45263,0
9.45837,0
9.46408,0
9.4698,0
9.47553,0
9.48125,0
9.48697,0
9.4927,0
9.49842,0
9.50413,0
9.50987,0
9.51558,0
9.5213,0
9.52703,0
9.53275,0
9.53847,0
9.5442,0
9.54992,0
9.55563,0
9.56137,0
9.56708,0
9.5728,0
9.57853,0
9.58425,0
9.58997,0
9.59568,0
9.60142,0
9.60713,0
9.61285,0
9.61858,0
9.6243,0
9.63002,0
9.63575,0
9.64147,0
9.64718,0
9.65292,0
9.65863,0
9.66435,0
9.67008,0
9.6758,0
9.68152,0
9.68725,0
9.69297,0
9.69868,0
9.70442,0
9.71013,0
9.71585,0
9.72157,0
9.7273,0
9.73302,0
9.73873,0
9.74447,0
9.75018,174
9.7559,0
9.76163,0
9.76735,0
9.77307,0
9.7788,0
9.78452,0
9.79023,0
9.79597,0
9.80168,0
9.8074,0
9.81313,0
9.81885,0
9.82457,0
9.8303,0
9.83602,0
9.84173,0
9.84745,0
9.85318,0
9.8589,0
9.86462,0
9.87035,0
9.87607,0
9.88178,0
9.88752,0
9.89323,0
9.89895,0
9.90468,0
9.9104,0
9.91612,0
9.92185,0
9.92757,0
9.93328,158
9.93902,0
9.94473,0
9.95045,0
9.95618,0
9.9619,0
9.96762,0
9.97333,0
9.97907,0
9.98478,0
9.9905,0
9.99623,0
10.002,0
10.0077,226
10.0134,258
10.0191,230
10.0248,162
10.0306,0
10.0363,0
10.042,0
10.0477,0
10.0535,0
10.0592,0
10.0649,0
10.0706,0
10.0763,0
10.0821,0
10.0878,0
10.0935,0
10.0992,0
10.105,0
10.1107,0
10.1164,0
10.1221,0
10.1278,0
10.1336,0
10.1393,0
10.145,0
10.1507,0
10.1565,0
10.1622,0
10.1679,0
10.1736,0
10.1793,0
10.1851,0
10.1908,0
10.1965,0
10.2022,0
10.208,0
10.2137,0
10.2194,0
10.2251,0
10.2308,0
10.2366,0
10.2423,0
10.248,0
10.2537,0
10.2594,0
10.2652,0
10.2709,0
10.2766,0
10.2823,0
10.2881,0
10.2938,0
10.2995,0
10.3052,0
10.3109,0
10.3167,0
10.3224,0
10.3281,0
10.3338,0
10.3396,0
10.3453,0
10.351,0
10.3567,0
10.3624,0
10.3682,0
10.3739,0
10.3796,0
10.3853,0
10.3911,0
10.3968,0
10.4025,0
10.4082,0
10.4139,0
10.4197,0
10.4254,0
10.4311,0
10.4368,0
10.4426,0
10.4483,0
10.454,0
10.4597,0
10.4654,0
10.4712,0
10.4769,0
10.4826,0
10.4883,0
10.494,0
10.4998,0
10.5055,0
10.5112,0
10.5169,0
10.5227,0
10.5284,0
10.5341,0
10.5398,0
10.5455,0
10.5513,0
10.557,0
10.5627,0
10.5684,0
10.5742,0
10.5799,0
10.5856,0
10.5913,0
10.597,0
10.6028,0
10.6085,0
10.6142,0
10.6199,0
10.6257,0
10.6314,0
10.6371,0
10.6428,0
10.6485,0
10.6543,0
10.66,0
10.6657,0
10.6714,0
10.6772,0
10.6829,0
10.6886,0
10.6943,0
10.7,0
10.7058,0
10.7115,0
10.7172,0
10.7229,0
10.7286,0
10.7344,170
10.7401,0
10.7458,0
10.7515,0
10.7573,0
10.763,0
10.7687,0
10.7744,0
10.7801,0
10.7859,0
10.7916,0
10.7973,0
10.803,0
10.8088,164
10.8145,0
10.8202,0
10.8259,0
10.8316,0
10.8374,0
10.8431,0
10.8488,0
10.8545,0
10.8603,0
10.866,0
10.8717,0
10.8774,0
10.8831,0
10.8889,0
10.8946,0
10.9003,0
10.906,0
10.9118,0
10.9175,0
10.9232,0
10.9289,159
10.9346,0
10.9404,0
10.9461,0
10.9518,0
10.9575,0
10.9633,0
10.969,151
10.9747,0
10.9804,0
10.9861,0
10.9919,0
10.9976,0
11.0033,0
11.009,160
11.0147,0
11.0205,0
11.0262,0
11.0319,0
11.0376,0
11.0434,0
11.0491,0
11.0548,0
11.0605,0
11.0662,0
11.072,0
11.0777,0
11.0834,0
11.0891,0
11.0949,0
11.1006,0
11.1063,0
11.112,0
11.1177,0
11.1235,0
11.1292,0
11.1349,0
11.1406,198
11.1464,0
11.1521,163
11.1578,0
11.1635,0
11.1692,150
11.175,0
11.1807,0
11.1864,0
11.1921,0
11.1979,0
11.2036,0
11.2093,0
11.215,0
11.2207,164
11.2265,0
11.2322,0
11.2379,154
11.2436,0
11.2493,0
11.2551,0
11.2608,0
11.2665,0
11.2722,0
11.278,0
11.2837,0
11.2894,0
11.2951,0
11.3008,0
11.3066,0
11.3123,0
11.318,0
11.3237,169
11.3295,158
11.3352,0
11.3409,0
11.3466,0
11.3523,0
11.3581,0
11.3638,0
11.3695,0
11.3752,0
11.381,0
11.3867,0
11.3924,157
11.3981,0
11.4038,0
11.4096,335
11.4153,0
11.421,0
11.4267,153
11.4325,0
11.4382,159
11.4439,0
11.4496,0
11.4553,0
11.4611,0
11.4668,159
11.4725,175
11.4782,212
11.4839,0
11.4897,0
11.4954,0
11.5011,0
11.5068,0
11.5126,0
11.5183,0
11.524,0
11.5297,0
11.5354,154
11.5412,0
11.5469,0
11.5526,0
11.5583,0
11.5641,0
11.5698,0
11.5755,0
11.5812,172
11.5869,0
11.5927,173
11.5984,171
11.6041,0
11.6098,0
11.6156,152
11.6213,0
11.627,0
11.6327,0
11.6384,0
11.6442,0
11.6499,0
11.6556,0
11.6613,0
11.6671,214
11.6728,0
11.6785,0
11.6842,0
11.6899,162
11.6957,0
11.7014,170
11.7071,0
11.7128,0
11.7186,0
11.7243,0
11.73,0
11.7357,0
11.7414,0
11.7472,0
11.7529,0
11.7586,0
11.7643,0
11.77,0
11.7758,0
11.7815,150
11.7872,0
11.7929,0
11.7987,0
11.8044,0
11.8101,0
11.8158,0
11.8215,163
11.8273,0
11.833,0
11.8387,0
11.8444,0
11.8502,0
11.8559,0
11.8616,150
11.8673,189
11.873,0
11.8788,201
11.8845,0
11.8902,159
11.8959,0
11.9017,0
11.9074,198
11.9131,0
11.9188,0
11.9245,199
11.9303,0
11.936,161
11.9417,0
11.9474,160
11.9532,0
11.9589,217
11.9646,0
11.9703,184
11.976,0
11.9818,0
11.9875,0
11.9932,184
11.9989,0
12.0046,0
12.0104,0
12.0161,0
12.0218,0
12.0275,182
12.0333,0
12.039,170
12.0447,154
12.0504,0
12.0561,0
12.0619,172
12.0676,151
12.0733,176
12.079,0
12.0848,175
12.0905,183
12.0962,172
12.1019,231
12.1076,0
12.1134,0
12.1191,0
12.1248,0
12.1305,230
12.1363,162
12.142,0
12.1477,161
12.1534,0
12.1591,205
12.1649,0
12.1706,0
12.1763,0
12.182,204
12.1878,0
12.1935,180
12.1992,174
12.2049,0
12.2106,162
12.2164,153
12.2221,197
12.2278,159
12.2335,240
12.2392,188
12.245,246
12.2507,0
12.2564,255
12.2621,0
12.2679,163
12.2736,229
12.2793,216
12.285,161
12.2907,0
12.2965,261
12.3022,0
12.3079,0
12.3136,0
12.3194,172
12.3251,0
12.3308,154
12.3365,261
12.3422,196
12.348,164
12.3537,373
12.3594,0
12.3651,161
12.3709,163
12.3766,0
12.3823,264
12.388,180
12.3937,223
12.3995,208
12.4052,205
12.4109,229
12.4166,0
12.4224,168
12.4281,170
12.4338,252
12.4395,0
12.4452,239
12.451,216
12.4567,194
12.4624,150
12.4681,0
12.4739,246
12.4796,169
12.4853,354
12.491,206
12.4967,0
12.5025,195
12.5082,156
12.5139,150
12.5196,185
12.5253,0
12.5311,183
12.5368,191
12.5425,209
12.5482,0
12.554,190
12.5597,197
12.5654,191
12.5711,169
12.5768,198
12.5826,0
12.5883,184
12.594,223
12.5997,253
12.6055,168
12.6112,183
12.6169,0
12.6226,150
12.6283,206
12.6341,209
12.6398,0
12.6455,158
12.6512,170
12.657,287
12.6627,233
12.6684,223
12.6741,220
12.6798,245
12.6856,482
12.6913,374
12.697,339
12.7027,164
12.7085,165
12.7142,195
12.7199,220
12.7256,221
12.7313,164
12.7371,230
12.7428,239
12.7485,205
12.7542,235
12.7599,175
12.7657,257
12.7714,0
12.7771,244
12.7828,281
12.7886,215
12.7943,299
12.8,0
12.8057,0
12.8114,263
12.8172,368
12.8229,225
12.8286,177
12.8343,273
12.8401,228
12.8458,279
12.8515,200
12.8572,205
12.8629,315
12.8687,263
12.8744,153
12.8801,236
12.8858,209
12.8916,258
12.8973,199
12.903,151
12.9087,200
12.9144,189
12.9202,284
12.9259,221
12.9316,255
12.9373,367
12.9431,288
12.9488,185
12.9545,214
12.9602,177
12.9659,175
12.9717,215
12.9774,455
12.9831,233
12.9888,189
12.9945,259
13.0003,414
13.006,216
13.0117,389
13.0174,421
13.0232,195
13.0289,320
13.0346,259
13.0403,163
13.046,247
13.0518,248
13.0575,282
13.0632,233
13.0689,235
13.0747,255
13.0804,243
13.0861,271
13.0918,167
13.0975,392
13.1033,249
13.109,280
13.1147,275
13.1204,251
13.1262,430
13.1319,333
13.1376,237
13.1433,181
13.149,244
13.1548,296
13.1605,282
13.1662,237
13.1719,329
13.1777,222
13.1834,0
13.1891,376
13.1948,252
13.2005,267
13.2063,258
13.212,287
13.2177,223
13.2234,306
13.2292,274
13.2349,407
13.2406,289
13.2463,235
13.252,308
13.2578,343
13.2635,254
13.2692,533
13.2749,220
13.2806,402
13.2864,326
13.2921,266
13.2978,367
13.3035,292
13.3093,417
13.315,306
13.3207,248
13.3264,211
13.3321,452
13.3379,188
13.3436,357
13.3493,345
13.355,254
13.3608,210
13.3665,160
13.3722,526
13.3779,218
13.3836,256
13.3894,490
13.3951,262
13.4008,252
13.4065,422
13.4123,323
13.418,517
13.4237,391
13.4294,365
13.4351,243
13.4409,331
13.4466,461
13.4523,433
13.458,532
13.4638,465
13.4695,276
13.4752,548
13.4809,515
13.4866,330
13.4924,324
13.4981,491
13.5038,258
13.5095,346
13.5152,503
13.521,491
13.5267,225
13.5324,447
13.5381,460
13.5439,603
13.5496,603
13.5553,464
13.561,226
13.5667,368
13.5725,286
13.5782,523
13.5839,274
13.5896,237
13.5954,501
13.6011,524
13.6068,457
13.6125,517
13.6182,320
13.624,225
13.6297,278
13.6354,242
13.6411,465
13.6469,543
13.6526,548
13.6583,522
13.664,538
13.6697,435
13.6755,327
13.6812,561
13.6869,550
13.6926,527
13.6984,323
13.7041,476
13.7098,358
13.7155,341
13.7212,576
13.727,373
13.7327,311
13.7384,378
13.7441,480
13.7499,519
13.7556,326
13.7613,663
13.767,362
13.7727,445
13.7785,358
13.7842,384
13.7899,446
13.7956,485
13.8013,411
13.8071,305
13.8128,419
13.8185,569
13.8242,663
13.83,533
13.8357,671
13.8414,703
13.8471,751
13.8528,623
13.8586,511
13.8643,237
13.87,654
13.8757,557
13.8815,603
13.8872,541
13.8929,645
13.8986,443
13.9043,530
13.9101,734
13.9158,787
13.9215,270
13.9272,548
13.933,707
13.9387,640
13.9444,488
13.9501,672
13.9558,640
13.9616,344
13.9673,534
13.973,509
13.9787,489
13.9845,489
13.9902,574
13.9959,585
14.0016,616
14.0073,654
14.0131,618
14.0188,563
14.0245,506
14.0302,628
14.0359,614
14.0417,388
14.0474,344
14.0531,562
14.0588,397
14.0646,495
14.0703,745
14.076,577
14.0817,718
14.0874,633
14.0932,797
14.0989,709
14.1046,598
14.1103,623
14.1161,708
14.1218,763
14.1275,604
14.1332,440
14.1389,626
14.1447,689
14.1504,904
14.1561,680
14.1618,243
14.1676,707
14.1733,803
14.179,566
14.1847,861
14.1904,497
14.1962,727
14.2019,664
14.2076,729
14.2133,940
14.2191,1811
14.2248,3527
14.2305,4261
14.2362,4346
14.2419,2796
14.2477,1936
14.2534,968
14.2591,834
14.2648,540
14.2705,721
14.2763,709
14.282,825
14.2877,700
14.2934,647
14.2992,689
14.3049,863
14.3106,831
14.3163,818
14.322,722
14.3278,703
14.3335,633
14.3392,716
14.3449,767
14.3507,791
14.3564,828
14.3621,791
14.3678,548
14.3735,707
14.3793,699
14.385,690
14.3907,809
14.3964,670
14.4022,923
14.4079,1259
14.4136,1012
14.4193,852
14.425,774
14.4308,835
14.4365,838
14.4422,919
14.4479,769
14.4537,1053
14.4594,938
14.4651,1033
14.4708,917
14.4765,1162
14.4823,1028
14.488,605
14.4937,1099
14.4994,952
14.5052,814
14.5109,799
14.5166,1203
14.5223,892
14.528,1181
14.5338,902
14.5395,878
14.5452,1058
14.5509,814
14.5566,755
14.5624,901
14.5681,804
14.5738,1003
14.5795,1117
14.5853,823
14.591,833
14.5967,1013
14.6024,900
14.6081,1180
14.6139,853
14.6196,1114
14.6253,1234
14.631,1076
14.6368,1024
14.6425,831
14.6482,1138
14.6539,1098
14.6596,1042
14.6654,952
14.6711,881
14.6768,938
14.6825,896
14.6883,1001
14.694,728
14.6997,825
14.7054,1153
14.7111,1233
14.7169,955
14.7226,1078
14.7283,1003
14.734,930
14.7398,1127
14.7455,1439
14.7512,908
14.7569,902
14.7626,1360
14.7684,1042
14.7741,1149
14.7798,1076
14.7855,1203
14.7912,1216
14.797,1035
14.8027,1039
14.8084,1036
14.8141,1126
14.8199,1340
14.8256,1108
14.8313,914
14.837,1014
14.8427,1685
14.8485,1384
14.8542,1127
14.8599,994
14.8656,1108
14.8714,1538
14.8771,1125
14.8828,1160
14.8885,1093
14.8942,1070
14.9,1265
14.9057,1119
14.9114,1217
14.9171,1686
14.9229,1074
14.9286,1351
14.9343,886
14.94,1425
14.9457,1319
14.9515,941
14.9572,1272
14.9629,1073
14.9686,1550
14.9744,1200
14.9801,1163
14.9858,1258
14.9915,1076
14.9972,1427
15.003,1510
15.0087,1211
15.0144,1629
15.0201,1228
15.0258,1363
15.0316,1128
15.0373,1084
15.043,1396
15.0487,1201
15.0545,1536
15.0602,1412
15.0659,1790
15.0716,1703
15.0773,1582
15.0831,1351
15.0888,1435
15.0945,1431
15.1002,1539
15.106,1597
15.1117,1491
15.1174,1687
15.1231,1659
15.1288,1831
15.1346,1623
15.1403,1761
15.146,1238
15.1517,1275
15.1575,1385
15.1632,1717
15.1689,1555
15.1746,1576
15.1803,1858
15.1861,1511
15.1918,1707
15.1975,1751
15.2032,1547
15.209,1516
15.2147,1652
15.2204,1589
15.2261,1581
15.2318,1674
15.2376,1840
15.2433,1680
15.249,1244
15.2547,1537
15.2605,2279
15.2662,2288
15.2719,2069
15.2776,1757
15.2833,1855
15.2891,1548
15.2948,1883
15.3005,1914
15.3062,1659
15.3119,1657
15.3177,1565
15.3234,1548
15.3291,1542
15.3348,1754
15.3406,1667
15.3463,1863
15.352,1781
15.3577,1945
15.3634,1909
15.3692,2059
15.3749,1893
15.3806,2253
15.3863,1777
15.3921,1608
15.3978,2087
15.4035,2398
15.4092,1704
15.4149,2126
15.4207,2052
15.4264,1929
15.4321,1649
15.4378,1594
15.4436,1864
15.4493,1922
15.455,2197
15.4607,1745
15.4664,2211
15.4722,2300
15.4779,1885
15.4836,2230
15.4893,2059
15.4951,2257
15.5008,2285
15.5065,2291
15.5122,1873
15.5179,2466
15.5237,2082
15.5294,2257
15.5351,1873
15.5408,2244
15.5465,2355
15.5523,2206
15.558,2595
15.5637,1951
15.5694,2380
15.5752,2420
15.5809,2013
15.5866,2294
15.5923,2886
15.598,1927
15.6038,2505
15.6095,2549
15.6152,2117
15.6209,2114
15.6267,2355
15.6324,2187
15.6381,2685
15.6438,1938
15.6495,2661
15.6553,2942
15.661,2367
15.6667,2431
15.6724,2462
15.6782,2265
15.6839,2575
15.6896,2519
15.6953,2630
15.701,2646
15.7068,2373
15.7125,2906
15.7182,2814
15.7239,2537
15.7297,2828
15.7354,2550
15.7411,2918
15.7468,2954
15.7525,2994
15.7583,2998
15.764,2562
15.7697,2756
15.7754,2355
15.7811,2218
15.7869,2532
15.7926,2577
15.7983,2546
15.804,3042
15.8098,2756
15.8155,2685
15.8212,3281
15.8269,3040
15.8326,3316
15.8384,2982
15.8441,2475
15.8498,3269
15.8555,2728
15.8613,3103
15.867,2361
15.8727,2894
15.8784,3077
15.8841,3358
15.8899,3272
15.8956,3207
15.9013,3254
15.907,3436
15.9128,2596
15.9185,3441
15.9242,3028
15.9299,2793
15.9356,3719
15.9414,2864
15.9471,3233
15.9528,3353
15.9585,2649
15.9643,3100
15.97,2861
15.9757,3270
15.9814,2796
15.9871,3491
15.9929,2979
15.9986,3214
16.0043,3355
16.01,3113
16.0158,3561
16.0215,3196
16.0272,3181
16.0329,3021
16.0386,3084
16.0444,3345
16.0501,3863
16.0558,3395
16.0615,3458
16.0672,3525
16.073,3490
16.0787,3624
16.0844,3404
16.0901,2909
16.0958,3028
16.1016,3467
16.1073,3743
16.113,4030
16.1187,3273
16.1245,3258
16.1302,3345
16.1359,3357
16.1416,3112
16.1473,3929
16.1531,3635
16.1588,3444
16.1645,3365
16.1702,3411
16.176,3748
16.1817,3684
16.1874,3999
16.1931,3784
16.1989,3568
16.2046,3445
16.2103,4168
16.216,3892
16.2217,3690
16.2275,3976
16.2332,3644
16.2389,4348
16.2446,3987
16.2504,4020
16.2561,4141
16.2618,4349
16.2675,4042
16.2732,4455
16.2789,4243
16.2847,3947
16.2904,4425
16.2961,4050
16.3018,4325
16.3076,4285
16.3133,3991
16.319,4617
16.3247,3774
16.3304,3943
16.3362,4159
16.3419,4231
16.3476,4330
16.3533,4805
16.3591,4287
16.3648,4405
16.3705,4357
16.3762,3763
16.382,3937
16.3877,4241
16.3934,4545
16.3991,4654
16.4048,3702
16.4106,5108
16.4163,4836
16.422,4647
16.4277,4621
16.4335,4449
16.4392,4389
16.4449,4330
16.4506,4687
16.4563,4694
16.4621,4476
16.4678,4786
16.4735,4348
16.4792,4349
16.485,4346
16.4907,4700
16.4964,4859
16.5021,4465
16.5078,4505
16.5135,5353
16.5193,5038
16.525,5629
16.5307,5250
16.5364,5147
16.5422,4843
16.5479,4916
16.5536,4923
16.5593,4779
16.565,4869
16.5708,5073
16.5765,4883
16.5822,5151
16.5879,4852
16.5937,4963
16.5994,5189
16.6051,4976
16.6108,5605
16.6166,4951
16.6223,5540
16.628,5505
16.6337,5196
16.6394,5464
16.6452,5602
16.6509,5246
16.6566,5334
16.6623,5322
16.6681,5797
16.6738,5117
16.6795,5070
16.6852,5158
16.6909,4819
16.6967,5911
16.7024,5583
16.7081,5555
16.7138,5315
16.7196,6292
16.7253,5551
16.731,5433
16.7367,5746
16.7424,5504
16.7481,6135
16.7539,5557
16.7596,6214
16.7653,5607
16.771,6121
16.7768,5981
16.7825,6429
16.7882,5690
16.7939,6178
16.7997,6165
16.8054,5981
16.8111,6445
16.8168,6318
16.8225,6043
16.8283,6327
16.834,6104
16.8397,6020
16.8454,6022
16.8512,6395
16.8569,6110
16.8626,6159
16.8683,6255
16.874,5864
16.8798,6329
16.8855,5915
16.8912,6740
16.8969,6121
16.9027,5940
16.9084,7205
16.9141,7077
16.9198,7236
16.9255,7183
16.9312,6899
16.937,6499
16.9427,6902
16.9484,6784
16.9541,6684
16.9599,6675
16.9656,6732
16.9713,6134
16.977,7168
16.9827,6381
16.9885,7140
16.9942,6642
16.9999,7102
17.0056,7089
17.0114,6578
17.0171,6741
17.0228,7254
17.0285,6932
17.0343,7497
17.04,7031
17.0457,7628
17.0514,6740
17.0571,6696
17.0629,7197
17.0686,7438
17.0743,7572
17.08,7273
17.0858,7138
17.0915,7934
17.0972,7039
17.1029,7231
17.1086,7484
17.1144,7451
17.1201,7331
17.1258,7833
17.1315,7474
17.1373,7664
17.143,7887
17.1487,8071
17.1544,7719
17.1601,7786
17.1659,7843
17.1716,7947
17.1773,8241
17.183,8251
17.1887,7500
17.1945,7692
17.2002,7956
17.2059,7772
17.2116,7731
17.2174,8154
17.2231,8361
17.2288,8098
17.2345,8394
17.2403,8220
17.246,7655
17.2517,8733
17.2574,7908
17.2631,8591
17.2689,8575
17.2746,8376
17.2803,8369
17.286,9360
17.2918,8408
17.2975,8338
17.3032,8501
17.3089,8944
17.3146,8927
17.3204,8255
17.3261,8416
17.3318,9200
17.3375,9203
17.3432,8673
17.349,8113
17.3547,8968
17.3604,9035
17.3661,8393
17.3718,8660
17.3776,8991
17.3833,9605
17.389,8508
17.3947,8547
17.4005,9678
17.4062,9323
17.4119,8725
17.4176,9521
17.4233,9930
17.4291,9441
17.4348,9390
17.4405,9027
17.4462,9790
17.452,9253
17.4577,9196
17.4634,10061
17.4691,9969
17.4749,9332
17.4806,9337
17.4863,9621
17.492,8892
17.4977,9448
17.5035,9715
17.5092,10303
17.5149,10690
17.5206,13549
17.5264,16926
17.5321,21300
17.5378,22238
17.5435,18076
17.5492,15175
17.555,12193
17.5607,10895
17.5664,10778
17.5721,10442
17.5778,10963
17.5836,10550
17.5893,9806
17.595,10604
17.6007,10234
17.6065,10438
17.6122,10034
17.6179,11880
17.6236,10244
17.6293,10359
17.6351,10869
17.6408,10680
17.6465,10268
17.6522,10211
17.658,10772
17.6637,11318
17.6694,10514
17.6751,10559
17.6808,10920
17.6866,10317
17.6923,11014
17.698,11018
17.7037,11225
17.7095,11175
17.7152,10318
17.7209,10653
17.7266,11044
17.7323,11560
17.7381,11010
17.7438,10929
17.7495,11226
17.7552,11624
17.761,11716
17.7667,11423
17.7724,11510
17.7781,12025
17.7838,11917
17.7896,11686
17.7953,12404
17.801,12156
17.8067,11808
17.8124,11126
17.8182,11274
17.8239,11776
17.8296,12286
17.8353,12553
17.841,12099
17.8468,11674
17.8525,12006
17.8582,12280
17.8639,11781
17.8697,12643
17.8754,11996
17.8811,11536
17.8868,11832
17.8926,12638
17.8983,12090
17.904,12609
17.9097,12605
17.9154,11919
17.9212,12083
17.9269,13142
17.9326,12674
17.9383,13105
17.9441,13426
17.9498,13002
17.9555,11957
17.9612,12709
17.9669,12963
17.9727,12067
17.9784,13535
17.9841,13129
17.9898,12646
17.9956,13068
18.0013,13394
18.007,12350
18.0127,13137
18.0184,13159
18.0242,13001
18.0299,13131
18.0356,12817
18.0413,13629
18.0471,13607
18.0528,13445
18.0585,12627
18.0642,13925
18.0699,14609
18.0757,14072
18.0814,13757
18.0871,14113
18.0928,13663
18.0985,14939
18.1043,14727
18.11,14185
18.1157,14418
18.1214,13973
18.1272,13624
18.1329,13894
18.1386,13742
18.1443,13627
18.15,13333
18.1558,14411
18.1615,13602
18.1672,14063
18.1729,14335
18.1787,13710
18.1844,14519
18.1901,14382
18.1958,13660
18.2015,14210
18.2073,14969
18.213,14617
18.2187,13478
18.2244,15793
18.2302,15125
18.2359,14436
18.2416,14496
18.2473,15076
18.253,14591
18.2587,13940
18.2645,14942
18.2702,14353
18.2759,14083
18.2817,15082
18.2874,14644
18.2931,15172
18.2988,15273
18.3045,15544
18.3103,16238
18.316,16288
18.3217,14759
18.3274,15120
18.3331,15782
18.3389,16069
18.3446,15379
18.3503,15014
18.356,15864
18.3618,15876
18.3675,16243
18.3732,15425
18.3789,16473
18.3846,16180
18.3904,15730
18.3961,16345
18.4018,16075
18.4075,16039
18.4133,15302
18.419,15456
18.4247,15758
18.4304,15880
18.4361,15798
18.4419,16442
18.4476,15967
18.4533,15932
18.459,16089
18.4648,16477
18.4705,16277
18.4762,15964
18.4819,16038
18.4876,15558
18.4934,16002
18.4991,16717
18.5048,16822
18.5105,16359
18.5162,15601
18.522,16426
18.5277,17646
18.5334,16431
18.5391,16524
18.5449,16101
18.5506,16782
18.5563,16391
18.562,17752
18.5677,17706
18.5735,16542
18.5792,17256
18.5849,18348
18.5906,17401
18.5964,17594
18.6021,17196
18.6078,17061
18.6135,17514
18.6192,17165
18.625,17966
18.6307,17264
18.6364,16810
18.6421,17110
18.6479,16667
18.6536,18039
18.6593,17671
18.665,17324
18.6707,17832
18.6765,17381
18.6822,18406
18.6879,17916
18.6936,17919
18.6994,17476
18.7051,18202
18.7108,18741
18.7165,17468
18.7222,18313
18.728,17859
18.7337,18029
18.7394,17516
18.7451,17861
18.7509,18373
18.7566,18629
18.7623,17667
18.768,17914
18.7737,16928
18.7795,18235
18.7852,18101
18.7909,18577
18.7966,18236
18.8024,17865
18.8081,18483
18.8138,18200
18.8195,17866
18.8252,18279
18.831,18866
18.8367,17989
18.8424,18593
18.8481,20166
18.8538,18182
18.8596,18718
18.8653,18682
18.871,18527
18.8767,19442
18.8825,19005
18.8882,18729
18.8939,18752
18.8996,18438
18.9053,20289
18.9111,18779
18.9168,19531
18.9225,18899
18.9282,18851
18.9339,20252
18.9397,18403
18.9454,19209
18.9511,19186
18.9568,20029
18.9626,19311
18.9683,19713
18.974,19408
18.9797,19905
18.9855,19166
18.9912,18534
18.9969,19462
19.0026,19212
19.0083,19356
19.0141,20348
19.0198,20528
19.0255,19706
19.0312,19871
19.037,21253
19.0427,20983
19.0484,19882
19.0541,19334
19.0598,19640
19.0656,19706
19.0713,20839
19.077,19353
19.0827,20083
19.0884,19157
19.0942,19663
19.0999,19790
19.1056,19887
19.1113,19804
19.1171,19447
19.1228,20407
19.1285,19918
19.1342,20434
19.1399,19157
19.1457,20427
19.1514,20463
19.1571,20066
19.1628,20141
19.1686,20886
19.1743,21274
19.18,19163
19.1857,20514
19.1914,20574
19.1972,20149
19.2029,20685
19.2086,20500
19.2143,20970
19.2201,20226
19.2258,20470
19.2315,20657
19.2372,19923
19.2429,20292
19.2487,20252
19.2544,20469
19.2601,20421
19.2658,20849
19.2716,20662
19.2773,19059
19.283,20153
19.2887,18652
19.2944,21220
19.3002,20544
19.3059,20231
19.3116,20865
19.3173,21502
19.323,20781
19.3288,21428
19.3345,19759
19.3402,20533
19.3459,20096
19.3516,19668
19.3574,20552
19.3631,20177
19.3688,20545
19.3745,20598
19.3803,20936
19.386,20588
19.3917,19734
19.3974,20484
19.4032,20262
19.4089,20358
19.4146,20857
19.4203,20921
19.426,20357
19.4318,20403
19.4375,21215
19.4432,19704
19.4489,20239
19.4547,21260
19.4604,21263
19.4661,20005
19.4718,20244
19.4775,21640
19.4833,20290
19.489,20308
19.4947,19833
19.5004,20397
19.5062,20916
19.5119,20132
19.5176,20376
19.5233,19413
19.529,20661
19.5348,19691
19.5405,20318
19.5462,20278
19.5519,20948
19.5577,19605
19.5634,21154
19.5691,20481
19.5748,20943
19.5805,20788
19.5863,20675
19.592,21359
19.5977,21474
19.6034,20944
19.6091,20290
19.6149,20249
19.6206,20565
19.6263,19350
19.632,21891
19.6378,21959
19.6435,19619
19.6492,20490
19.6549,20079
19.6606,21602
19.6664,20625
19.6721,20600
19.6778,20883
19.6835,21292
19.6893,20101
19.695,20269
19.7007,20665
19.7064,20692
19.7121,19131
19.7179,20196
19.7236,19819
19.7293,20248
19.735,19565
19.7408,19671
19.7465,21286
19.7522,19987
19.7579,19689
19.7636,20863
19.7693,20235
19.7751,21673
19.7808,19585
19.7865,21530
19.7922,20385
19.798,21029
19.8037,20617
19.8094,21328
19.8151,20508
19.8209,21012
19.8266,21251
19.8323,19758
19.838,21407
19.8437,19949
19.8495,21054
19.8552,20318
19.8609,19737
19.8666,20237
19.8724,20022
19.8781,19888
19.8838,21245
19.8895,20372
19.8952,18921
19.901,21132
19.9067,21325
19.9124,20827
19.9181,22068
19.9239,20545
19.9296,21008
19.9353,21284
19.941,21148
19.9467,20741
19.9525,20938
19.9582,21487
19.9639,19795
19.9696,19902
19.9754,20389
19.9811,20330
19.9868,20614
19.9925,20797
19.9982,20674
20.004,20141
20.0097,21068
20.0154,20851
20.0211,20253
20.0269,21171
20.0326,20325
20.0383,20869
20.044,19880
20.0497,21291
20.0555,20545
20.0612,21572
20.0669,20189
20.0726,20249
20.0783,19424
20.0841,21039
20.0898,20351
20.0955,21493
20.1012,19985
20.107,21087
20.1127,21270
20.1184,20857
20.1241,20574
20.1298,21044
20.1356,20849
20.1413,20590
20.147,21431
20.1527,20619
20.1585,20873
20.1642,19922
20.1699,20077
20.1756,20334
20.1813,20989
20.1871,20143
20.1928,20715
20.1985,21379
20.2042,21274
20.2099,20839
20.2157,20328
20.2214,19562
20.2271,20917
20.2328,21184
20.2386,20590
20.2443,22327
20.25,20688
20.2557,20462
20.2615,20448
20.2672,20537
20.2729,20764
20.2786,20446
20.2843,19691
20.2901,20462
20.2958,20424
20.3015,20506
20.3072,20411
20.313,20714
20.3187,20236
20.3244,20138
20.3301,19888
20.3358,20016
20.3416,20531
20.3473,20208
20.353,20657
20.3587,20666
20.3644,21079
20.3702,20673
20.3759,20331
20.3816,21141
20.3873,20320
20.3931,20643
20.3988,19678
20.4045,20565
20.4102,20173
20.4159,20960
20.4217,19790
20.4274,20912
20.4331,19880
20.4388,21617
20.4446,21419
20.4503,21279
20.456,21274
20.4617,21269
20.4674,21000
20.4732,21359
20.4789,20173
20.4846,20029
20.4903,20146
20.4961,20267
20.5018,21286
20.5075,20377
20.5132,20313
20.5189,20714
20.5247,20933
20.5304,20671
20.5361,20556
20.5418,20199
20.5476,19835
20.5533,20161
20.559,20326
20.5647,21054
20.5704,20827
20.5762,20852
20.5819,20187
20.5876,20484
20.5933,20913
20.599,20477
20.6048,20794
20.6105,22136
20.6162,20500
20.6219,21029
20.6277,21511
20.6334,20717
20.6391,19898
20.6448,20122
20.6505,21004
20.6563,20948
20.662,20955
20.6677,21514
20.6734,20303
20.6792,19722
20.6849,20842
20.6906,20900
20.6963,21032
20.702,20578
20.7078,21376
20.7135,20054
20.7192,21341
20.7249,20898
20.7307,21779
20.7364,19881
20.7421,21576
20.7478,20565
20.7535,20743
20.7593,20718
20.765,19885
20.7707,20981
20.7764,21449
20.7822,21896
20.7879,21548
20.7936,21871
20.7993,20759
20.805,21237
20.8108,21065
20.8165,20266
20.8222,19427
20.8279,20386
20.8337,20964
20.8394,20559
20.8451,21378
20.8508,20507
20.8565,20469
20.8623,21446
20.868,20631
20.8737,19656
20.8794,20505
20.8851,21874
20.8909,21125
20.8966,21921
20.9023,20604
20.908,21018
20.9138,21140
20.9195,20237
20.9252,20641
20.9309,20496
20.9366,20260
20.9424,20912
20.9481,20687
20.9538,20617
20.9595,20470
20.9653,20312
20.971,21236
20.9767,20856
20.9824,20829
20.9881,20555
20.9939,21306
20.9996,20398
21.0053,20154
21.011,21216
21.0168,20849
21.0225,21081
21.0282,20295
21.0339,21832
21.0396,20174
21.0454,21955
21.0511,20518
21.0568,21516
21.0625,19831
21.0683,21238
21.074,21238
21.0797,21219
21.0854,21181
21.0911,21201
21.0969,20391
21.1026,21230
21.1083,19945
21.114,20165
21.1197,20983
21.1255,20564
21.1312,20643
21.1369,21847
21.1426,20379
21.1484,20240
21.1541,20714
21.1598,21420
21.1655,19596
21.1712,21072
21.177,20538
21.1827,20411
21.1884,20624
21.1941,20869
21.1999,20682
21.2056,21850
21.2113,22039
21.217,20676
21.2227,21569
21.2285,21218
21.2342,21247
21.2399,20530
21.2456,21412
21.2514,20527
21.2571,21005
21.2628,20425
21.2685,19721
21.2742,21600
21.2799,20275
21.2857,20210
21.2914,20562
21.2971,20384
21.3028,21211
21.3086,20059
21.3143,20975
21.32,20709
21.3257,21346
21.3315,20967
21.3372,20693
21.3429,21088
21.3486,20588
21.3543,20937
21.3601,20562
21.3658,21032
21.3715,21121
21.3772,20077
21.383,21768
21.3887,21253
21.3944,20534
21.4001,20354
21.4058,20468
21.4116,20755
21.4173,19610
21.423,20423
21.4287,21351
21.4345,20601
21.4402,20872
21.4459,21064
21.4516,20788
21.4573,21014
21.4631,22561
21.4688,20529
21.4745,20352
21.4802,20143
21.486,20318
21.4917,21389
21.4974,20737
21.5031,20840
21.5088,20804
21.5146,20343
21.5203,21209
21.526,21354
21.5317,21987
21.5375,20074
21.5432,20739
21.5489,20299
21.5546,21670
21.5603,21464
21.5661,21001
21.5718,20532
21.5775,21028
21.5832,21830
21.589,20484
21.5947,19843
21.6004,22218
21.6061,19891
21.6118,21648
21.6176,21563
21.6233,20652
21.629,21268
21.6347,21564
21.6404,21258
21.6462,21188
21.6519,20486
21.6576,21651
21.6633,21307
21.6691,20990
21.6748,21472
21.6805,19456
21.6862,20564
21.6919,21077
21.6977,20678
21.7034,20981
21.7091,20691
21.7148,21172
21.7205,19894
21.7263,21595
21.732,20515
21.7377,20678
21.7434,21516
21.7492,20581
21.7549,20548
21.7606,21953
21.7663,21248
21.7721,21090
21.7778,21405
21.7835,20725
21.7892,20858
21.7949,21437
21.8007,21142
21.8064,20455
21.8121,20212
21.8178,20838
21.8236,19948
21.8293,22017
21.835,20429
21.8407,22146
21.8464,21597
21.8522,20133
21.8579,20993
21.8636,20196
21.8693,21075
21.875,21252
21.8808,21318
21.8865,19983
21.8922,20691
21.8979,21179
21.9037,20305
21.9094,20906
21.9151,20528
21.9208,19930
21.9265,21644
21.9323,21627
21.938,21098
21.9437,20719
21.9494,21111
21.9552,21026
21.9609,21090
21.9666,21084
21.9723,21274
21.978,21266
21.9838,20506
21.9895,20490
21.9952,21987
22.0009,20360
22.0067,20500
22.0124,21300
22.0181,21221
22.0238,21476
22.0295,20787
22.0353,21193
22.041,21554
22.0467,21738
22.0524,21209
22.0582,20698
22.0639,20627
22.0696,19956
22.0753,20713
22.081,19573
22.0868,21382
22.0925,21062
22.0982,20935
22.1039,20820
22.1096,21024
22.1154,21798
22.1211,20088
22.1268,19992
22.1325,21881
22.1382,20869
22.144,20056
22.1497,21127
22.1554,20216
22.1611,20914
22.1669,20954
22.1726,20256
22.1783,21116
22.184,20611
22.1898,20211
22.1955,21684
22.2012,20011
22.2069,20536
22.2126,20413
22.2184,21880
22.2241,21401
22.2298,21785
22.2355,22241
22.2413,21276
22.247,20078
22.2527,20585
22.2584,21785
22.2641,21677
22.2699,21159
22.2756,20883
22.2813,21010
22.287,20984
22.2928,21472
22.2985,20990
22.3042,20061
22.3099,19947
22.3156,20008
22.3214,20486
22.3271,21594
22.3328,21102
22.3385,20683
22.3443,20895
22.35,21174
22.3557,20594
22.3614,21300
22.3671,21050
22.3729,21010
22.3786,21283
22.3843,21273
22.39,21286
22.3957,20244
22.4015,20733
22.4072,20314
22.4129,21160
22.4186,21057
22.4244,20649
22.4301,20679
22.4358,20239
22.4415,20917
22.4472,21363
22.453,20866
22.4587,20516
22.4644,22703
22.4701,21546
22.4759,20893
22.4816,19938
22.4873,20899
22.493,20987
