C:\MSDCHEM\1\DATA\SERINA\20170928 LACTONE_STD_CURVE\5.d 28 Sep 17   4:18 pm
Start of data points
5.09233,94134
5.09805,91527
5.10377,95410
5.1095,93058
5.11522,98039
5.12093,98922
5.12667,94760
5.13238,99888
5.1381,101936
5.14383,99872
5.14955,102535
5.15527,102311
5.16098,102527
5.16672,101635
5.17243,103773
5.17815,105189
5.18388,101472
5.1896,98528
5.19532,98917
5.20105,93844
5.20677,94560
5.21248,90552
5.21822,87655
5.22393,85322
5.22965,83118
5.23538,78660
5.2411,78538
5.24682,76182
5.25255,70777
5.25827,75620
5.26398,68705
5.26972,68507
5.27543,66982
5.28115,62450
5.28687,62268
5.2926,62890
5.29832,62591
5.30403,60434
5.30977,61562
5.31548,56956
5.3212,58118
5.32693,55782
5.33265,55750
5.33837,56839
5.3441,56490
5.34982,52770
5.35553,54249
5.36127,55602
5.36698,54714
5.3727,52514
5.37843,52620
5.38415,52535
5.38987,52692
5.3956,51773
5.40132,52764
5.40703,50886
5.41275,52183
5.41848,49547
5.4242,50269
5.42992,50469
5.43565,49446
5.44137,49882
5.44708,49080
5.45282,48560
5.45853,47573
5.46425,47055
5.46998,48665
5.4757,50260
5.48142,47757
5.48715,46631
5.49287,48095
5.49858,46601
5.50432,48282
5.51003,45447
5.51575,46612
5.52148,45741
5.5272,45752
5.53292,45747
5.53863,46175
5.54437,44980
5.55008,45424
5.5558,44583
5.56153,43484
5.56725,43969
5.57297,43875
5.5787,45714
5.58442,44016
5.59013,45171
5.59587,43511
5.60158,43826
5.6073,44507
5.61303,43254
5.61875,43640
5.62447,44726
5.6302,42725
5.63592,43150
5.64163,44517
5.64737,42207
5.65308,40842
5.6588,42801
5.66452,41885
5.67025,42202
5.67597,40563
5.68168,41273
5.68742,40861
5.69313,42972
5.69885,42772
5.70458,42733
5.7103,41165
5.71602,41385
5.72175,40521
5.72747,42141
5.73318,38728
5.73892,39203
5.74463,41640
5.75035,40579
5.75608,39570
5.7618,40007
5.76752,40367
5.77325,39016
5.77897,38931
5.78468,41638
5.7904,38716
5.79613,40328
5.80185,42502
5.80757,38488
5.8133,42324
5.81902,39969
5.82473,40648
5.83047,40304
5.83618,39064
5.8419,39364
5.84763,40701
5.85335,40243
5.85907,39720
5.8648,39240
5.87052,40068
5.87623,38598
5.88197,39273
5.88768,39947
5.8934,39306
5.89913,39638
5.90485,39936
5.91057,39295
5.91628,36891
5.92202,38385
5.92773,38242
5.93345,38174
5.93918,36844
5.9449,37741
5.95062,35633
5.95635,36798
5.96207,35894
5.96778,36169
5.97352,36813
5.97923,34921
5.98495,36242
5.99068,35240
5.9964,34689
6.00212,36711
6.00785,37463
6.01357,36084
6.01928,35540
6.02502,35248
6.03073,37203
6.03645,35563
6.04217,35579
6.0479,35189
6.05362,32988
6.05933,33758
6.06507,35206
6.07078,33351
6.0765,36121
6.08223,33320
6.08795,33207
6.09367,33654
6.0994,35243
6.10512,33802
6.11083,33513
6.11657,33411
6.12228,33376
6.128,35380
6.13373,34476
6.13945,35730
6.14517,32386
6.1509,34679
6.15662,33930
6.16233,33300
6.16805,32635
6.17378,34260
6.1795,33350
6.18522,36053
6.19095,33180
6.19667,33097
6.20238,32303
6.20812,32021
6.21383,34634
6.21955,31782
6.22528,32954
6.231,33938
6.23672,34237
6.24245,32979
6.24817,31862
6.25388,32748
6.25962,32022
6.26533,34557
6.27105,33488
6.27678,32408
6.2825,33967
6.28822,32906
6.29393,30895
6.29967,32133
6.30538,32116
6.3111,32113
6.31683,31697
6.32255,34014
6.32827,33707
6.334,33246
6.33972,30692
6.34543,33171
6.35117,30987
6.35688,31164
6.3626,31960
6.36833,31612
6.37405,33129
6.37977,30985
6.3855,31949
6.39122,31400
6.39693,29659
6.40267,29380
6.40838,32240
6.4141,32688
6.41982,28822
6.42555,29673
6.43127,30912
6.43698,31266
6.44272,30503
6.44843,30707
6.45415,30291
6.45988,31379
6.4656,31560
6.47132,33324
6.47705,31141
6.48277,31911
6.48848,30791
6.49422,31184
6.49993,30148
6.50565,32425
6.51138,30030
6.5171,31719
6.52282,31168
6.52855,30067
6.53427,29235
6.53998,29363
6.5457,29538
6.55143,29451
6.55715,29033
6.56287,28855
6.5686,29979
6.57432,30909
6.58003,30182
6.58577,28631
6.59148,28478
6.5972,30742
6.60293,31155
6.60865,28303
6.61437,31210
6.6201,29327
6.62582,27974
6.63153,29398
6.63727,29331
6.64298,30009
6.6487,29755
6.65443,29673
6.66015,29515
6.66587,29138
6.67158,29658
6.67732,29906
6.68303,27361
6.68875,28362
6.69448,28555
6.7002,28815
6.70592,29022
6.71165,29188
6.71737,29143
6.72308,28141
6.72882,29539
6.73453,28286
6.74025,26716
6.74598,28465
6.7517,28833
6.75742,26477
6.76315,27869
6.76887,29128
6.77458,29034
6.78032,27233
6.78603,28814
6.79175,28370
6.79747,28821
6.8032,27703
6.80892,26243
6.81463,27130
6.82037,30427
6.82608,27530
6.8318,25586
6.83753,28655
6.84325,27967
6.84897,26762
6.8547,29382
6.86042,29057
6.86613,27406
6.87187,27211
6.87758,29150
6.8833,26450
6.88903,26300
6.89475,28210
6.90047,26625
6.9062,27321
6.91192,26529
6.91763,29043
6.92335,28033
6.92908,28227
6.9348,28098
6.94052,28714
6.94625,27421
6.95197,28314
6.95768,27347
6.96342,26336
6.96913,26694
6.97485,26427
6.98058,27364
6.9863,27469
6.99202,28166
6.99775,27015
7.00347,26651
7.00918,28118
7.01492,26043
7.02063,27107
7.02635,27023
7.03208,27691
7.0378,27519
7.04352,28667
7.04923,25782
7.05497,25607
7.06068,27255
7.0664,27852
7.07213,25926
7.07785,27214
7.08357,27264
7.0893,25562
7.09502,25949
7.10073,26055
7.10647,28652
7.11218,27184
7.1179,26234
7.12363,24388
7.12935,25745
7.13507,24514
7.1408,25392
7.14652,27785
7.15223,25929
7.15797,25925
7.16368,26487
7.1694,25811
7.17512,26850
7.18085,26890
7.18657,26695
7.19228,26079
7.19802,25517
7.20373,24503
7.20945,26129
7.21518,25665
7.2209,27018
7.22662,25030
7.23235,25852
7.23807,26968
7.24378,27013
7.24952,25637
7.25523,26325
7.26095,26054
7.26668,26903
7.2724,26171
7.27812,26768
7.28385,25717
7.28957,26370
7.29528,25135
7.301,27076
7.30673,24987
7.31245,26721
7.31817,26789
7.3239,27126
7.32962,27231
7.33533,25985
7.34107,26015
7.34678,26499
7.3525,25066
7.35823,26318
7.36395,26773
7.36967,28350
7.3754,25650
7.38112,24620
7.38683,27455
7.39257,26210
7.39828,27527
7.404,25253
7.40973,25817
7.41545,25239
7.42117,25507
7.42688,25300
7.43262,25025
7.43833,25507
7.44405,24291
7.44978,25352
7.4555,24953
7.46122,27437
7.46695,27771
7.47267,27902
7.47838,26946
7.48412,26434
7.48983,25860
7.49555,26801
7.50128,27069
7.507,26612
7.51272,27007
7.51845,26385
7.52417,25309
7.52988,23912
7.53562,23866
7.54133,25182
7.54705,25732
7.55277,26553
7.5585,25586
7.56422,25253
7.56993,26292
7.57567,24672
7.58138,25620
7.5871,26176
7.59283,25537
7.59855,26012
7.60427,25650
7.61,24491
7.61572,26217
7.62143,25823
7.62717,25653
7.63288,24036
7.6386,24725
7.64433,25407
7.65005,26064
7.65577,25620
7.6615,22913
7.66722,26230
7.67293,25937
7.67865,26067
7.68438,25579
7.6901,25754
7.69582,24340
7.70155,25034
7.70727,24009
7.71298,25609
7.71872,24895
7.72443,25032
7.73015,24208
7.73588,24837
7.7416,24975
7.74732,25036
7.75305,25120
7.75877,24567
7.76448,26415
7.77022,24092
7.77593,25142
7.78165,23986
7.78738,24359
7.7931,24818
7.79882,24261
7.80455,24033
7.81027,24618
7.81598,24670
7.8217,24508
7.82743,24869
7.83315,22291
7.83887,24839
7.8446,25211
7.85032,24196
7.85603,24355
7.86177,21974
7.86748,24722
7.8732,24293
7.87893,23692
7.88465,23945
7.89037,24523
7.8961,23763
7.90182,24700
7.90753,24843
7.91327,24376
7.91898,24652
7.9247,24616
7.93043,25119
7.93615,26127
7.94187,26361
7.94758,24898
7.95332,24287
7.95903,26593
7.96475,24848
7.97048,24851
7.9762,25671
7.98192,24867
7.98765,23442
7.99337,25561
7.99908,25075
8.00482,24525
8.01053,23650
8.01625,25817
8.02198,23440
8.0277,25056
8.03342,23362
8.03915,25117
8.04487,25500
8.05058,24905
8.05632,24727
8.06203,24051
8.06775,25267
8.07347,23858
8.0792,23373
8.08492,24454
8.09063,23829
8.09637,23949
8.10208,23380
8.1078,23594
8.11353,23481
8.11925,22844
8.12497,24439
8.1307,23699
8.13642,24176
8.14213,24032
8.14787,24847
8.15358,24147
8.1593,25664
8.16503,23188
8.17075,23747
8.17647,23742
8.1822,23513
8.18792,23467
8.19363,24040
8.19935,22695
8.20508,24110
8.2108,23551
8.21652,24266
8.22225,23516
8.22797,26260
8.23368,24376
8.23942,25370
8.24513,23304
8.25085,23565
8.25658,22605
8.2623,22895
8.26802,23738
8.27375,24676
8.27947,23691
8.28518,23747
8.29092,25411
8.29663,22736
8.30235,23724
8.30808,24127
8.3138,25009
8.31952,22594
8.32523,22552
8.33097,22471
8.33668,23893
8.3424,23779
8.34813,24067
8.35385,23115
8.35957,24339
8.3653,23182
8.37102,23050
8.37673,24637
8.38247,22761
8.38818,23711
8.3939,22714
8.39963,22889
8.40535,21200
8.41107,22207
8.4168,24249
8.42252,23189
8.42823,20686
8.43397,23797
8.43968,22074
8.4454,22671
8.45112,22664
8.45685,24186
8.46257,22226
8.46828,22241
8.47402,23677
8.47973,23049
8.48545,23707
8.49118,22839
8.4969,23288
8.50262,21816
8.50835,22714
8.51407,23042
8.51978,23395
8.52552,23178
8.53123,24401
8.53695,23486
8.54268,22980
8.5484,23864
8.55412,23120
8.55985,24851
8.56557,23059
8.57128,23755
8.577,21459
8.58273,22588
8.58845,22503
8.59417,23800
8.5999,23106
8.60562,23456
8.61133,21599
8.61707,23677
8.62278,22661
8.6285,22594
8.63423,22597
8.63995,22752
8.64567,22396
8.6514,22608
8.65712,22475
8.66283,22788
8.66857,23632
8.67428,22393
8.68,23122
8.68573,22763
8.69145,23510
8.69717,22197
8.70288,24286
8.70862,22388
8.71433,22086
8.72005,23575
8.72578,24252
8.7315,23608
8.73722,22518
8.74295,22563
8.74867,21988
8.75438,23674
8.76012,21986
8.76583,22985
8.77155,22516
8.77728,22328
8.783,21385
8.78872,22387
8.79445,23383
8.80017,22917
8.80588,22636
8.81162,22786
8.81733,22687
8.82305,21348
8.82877,22393
8.8345,22126
8.84022,23116
8.84593,22028
8.85167,24334
8.85738,23475
8.8631,22179
8.86883,22135
8.87455,23811
8.88027,23535
8.886,22714
8.89172,22323
8.89743,22737
8.90317,22411
8.90888,21373
8.9146,22712
8.92033,23324
8.92605,22561
8.93177,21417
8.9375,24213
8.94322,22769
8.94893,23478
8.95465,25085
8.96038,23655
8.9661,24254
8.97182,22538
8.97755,24468
8.98327,23131
8.98898,22778
8.99472,24681
9.00043,23152
9.00615,22998
9.01188,23118
9.0176,22816
9.02332,23398
9.02905,23552
9.03477,23246
9.04048,21481
9.04622,21804
9.05193,22892
9.05765,25343
9.06338,22381
9.0691,22143
9.07482,22449
9.08053,23524
9.08627,22527
9.09198,23732
9.0977,23393
9.10343,22932
9.10915,22857
9.11487,23183
9.1206,22881
9.12632,23884
9.13203,23867
9.13777,24120
9.14348,22995
9.1492,23644
9.15493,24206
9.16065,24333
9.16637,24713
9.1721,25102
9.17782,24100
9.18353,23653
9.18927,24310
9.19498,23025
9.2007,22359
9.20642,23211
9.21215,24088
9.21787,22480
9.22358,23917
9.22932,24692
9.23503,21782
9.24075,23470
9.24648,24027
9.2522,22921
9.25792,23349
9.26365,23832
9.26937,22255
9.27508,23791
9.28082,21294
9.28653,23414
9.29225,22581
9.29798,23699
9.3037,23705
9.30942,23192
9.31515,23172
9.32087,21634
9.32658,23732
9.3323,21235
9.33803,23069
9.34375,23047
9.34947,22293
9.3552,22410
9.36092,22129
9.36663,21521
9.37237,24056
9.37808,23022
9.3838,24630
9.38953,23743
9.39525,23527
9.40097,25010
9.4067,21969
9.41242,24786
9.41813,25430
9.42387,23604
9.42958,23961
9.4353,23851
9.44103,23374
9.44675,24937
9.45247,23793
9.45818,24750
9.46392,23774
9.46963,23713
9.47535,23572
9.48108,21962
9.4868,21569
9.49252,25028
9.49825,24418
9.50397,23870
9.50968,24396
9.51542,23608
9.52113,24501
9.52685,24513
9.53258,23648
9.5383,22756
9.54402,26257
9.54975,25890
9.55547,24454
9.56118,25656
9.56692,24885
9.57263,25727
9.57835,26169
9.58407,25571
9.5898,25964
9.59552,26484
9.60123,25025
9.60697,26095
9.61268,25326
9.6184,24321
9.62413,26387
9.62985,25634
9.63557,24613
9.6413,27371
9.64702,27770
9.65273,28477
9.65847,26706
9.66418,28547
9.6699,30374
9.67563,30434
9.68135,32279
9.68707,32091
9.6928,32245
9.69852,33935
9.70423,36423
9.70995,39081
9.71568,39780
9.7214,43119
9.72712,45120
9.73285,45746
9.73857,45231
9.74428,49143
9.75002,46614
9.75573,48091
9.76145,48079
9.76718,49056
9.7729,47790
9.77862,46454
9.78435,46986
9.79007,46786
9.79578,43594
9.80152,42659
9.80723,41661
9.81295,41503
9.81868,42418
9.8244,40949
9.83012,38997
9.83583,36928
9.84157,37242
9.84728,37218
9.853,36033
9.85873,34375
9.86445,32877
9.87017,33548
9.8759,32787
9.88162,35479
9.88733,33523
9.89307,32830
9.89878,32321
9.9045,33444
9.91023,33136
9.91595,30006
9.92167,31917
9.9274,32095
9.93312,31712
9.93883,30794
9.94457,30006
9.95028,29589
9.956,30061
9.96172,28479
9.96745,29812
9.97317,29066
9.97888,29667
9.98462,28768
9.99033,30613
9.99605,30807
10.0018,30712
10.0075,29314
10.0132,28944
10.019,30816
10.0247,27205
10.0304,26469
10.0361,28080
10.0418,28601
10.0476,29302
10.0533,29455
10.059,29864
10.0647,27978
10.0705,30929
10.0762,29665
10.0819,30495
10.0876,29453
10.0933,29042
10.0991,27008
10.1048,27014
10.1105,28413
10.1162,27761
10.1219,28974
10.1277,28817
10.1334,28904
10.1391,29542
10.1448,28701
10.1506,28908
10.1563,28640
10.162,27353
10.1677,28037
10.1734,28454
10.1792,28234
10.1849,28421
10.1906,27950
10.1963,28780
10.2021,27066
10.2078,27817
10.2135,27652
10.2192,27452
10.2249,27290
10.2307,29938
10.2364,27159
10.2421,27604
10.2478,24798
10.2536,28297
10.2593,28703
10.265,26367
10.2707,26426
10.2764,26933
10.2822,25213
10.2879,27349
10.2936,24834
10.2993,27608
10.3051,28931
10.3108,28324
10.3165,27495
10.3222,27241
10.3279,27708
10.3337,26303
10.3394,26802
10.3451,25344
10.3508,26489
10.3565,27198
10.3623,24806
10.368,26806
10.3737,25793
10.3794,26865
10.3852,26558
10.3909,25141
10.3966,26641
10.4023,25362
10.408,25020
10.4138,25717
10.4195,27255
10.4252,26339
10.4309,26272
10.4367,25339
10.4424,26659
10.4481,25304
10.4538,25613
10.4595,25640
10.4653,23528
10.471,24185
10.4767,24081
10.4824,26384
10.4882,25082
10.4939,24705
10.4996,26184
10.5053,24436
10.511,24316
10.5168,27090
10.5225,24969
10.5282,25008
10.5339,24033
10.5397,26412
10.5454,26878
10.5511,24900
10.5568,25337
10.5625,24547
10.5683,23670
10.574,24950
10.5797,25325
10.5854,24469
10.5911,28346
10.5969,26535
10.6026,25834
10.6083,27515
10.614,26254
10.6198,27981
10.6255,28148
10.6312,27238
10.6369,25493
10.6426,26769
10.6484,25510
10.6541,25307
10.6598,24698
10.6655,25293
10.6713,25985
10.677,26791
10.6827,26821
10.6884,25167
10.6941,25967
10.6999,26933
10.7056,26057
10.7113,23164
10.717,25147
10.7228,24296
10.7285,24429
10.7342,26217
10.7399,25420
10.7456,24604
10.7514,24044
10.7571,22452
10.7628,24196
10.7685,24966
10.7743,23958
10.78,25505
10.7857,25857
10.7914,23460
10.7971,25024
10.8029,26264
10.8086,25484
10.8143,24624
10.82,24597
10.8258,26585
10.8315,24567
10.8372,25177
10.8429,24426
10.8486,25269
10.8544,24346
10.8601,26439
10.8658,25740
10.8715,25827
10.8772,23292
10.883,25427
10.8887,24206
10.8944,24886
10.9001,25955
10.9059,23870
10.9116,25874
10.9173,24524
10.923,27345
10.9287,25521
10.9345,26386
10.9402,27252
10.9459,25188
10.9516,25054
10.9574,27395
10.9631,27663
10.9688,25263
10.9745,27586
10.9802,26904
10.986,27651
10.9917,27121
10.9974,29914
11.0031,30829
11.0089,29440
11.0146,28629
11.0203,32304
11.026,32943
11.0317,35044
11.0375,35844
11.0432,36825
11.0489,37552
11.0546,38615
11.0604,39877
11.0661,41445
11.0718,43549
11.0775,46389
11.0832,50591
11.089,53662
11.0947,53959
11.1004,56588
11.1061,58766
11.1118,61287
11.1176,59224
11.1233,63488
11.129,60520
11.1347,62449
11.1405,61954
11.1462,61942
11.1519,59538
11.1576,59682
11.1633,57724
11.1691,56826
11.1748,56179
11.1805,58373
11.1862,54246
11.192,53726
11.1977,52295
11.2034,51651
11.2091,48563
11.2148,52463
11.2206,47697
11.2263,49880
11.232,47877
11.2377,48684
11.2435,45706
11.2492,48017
11.2549,46561
11.2606,46546
11.2663,45279
11.2721,46165
11.2778,44801
11.2835,45282
11.2892,45272
11.295,43734
11.3007,42162
11.3064,47016
11.3121,45153
11.3178,43260
11.3236,43730
11.3293,39932
11.335,42312
11.3407,39318
11.3464,40340
11.3522,38272
11.3579,38310
11.3636,38436
11.3693,37765
11.3751,35531
11.3808,35252
11.3865,36220
11.3922,34692
11.3979,35358
11.4037,35806
11.4094,34243
11.4151,34639
11.4208,33090
11.4266,31745
11.4323,33364
11.438,32375
11.4437,32877
11.4494,32493
11.4552,33062
11.4609,29370
11.4666,32535
11.4723,30567
11.4781,32347
11.4838,31926
11.4895,29768
11.4952,30111
11.5009,28617
11.5067,30118
11.5124,31502
11.5181,29361
11.5238,30278
11.5296,30295
11.5353,31805
11.541,30368
11.5467,31313
11.5524,29981
11.5582,31407
11.5639,30160
11.5696,27923
11.5753,30634
11.5811,28132
11.5868,29642
11.5925,28833
11.5982,29489
11.6039,29138
11.6097,30351
11.6154,28705
11.6211,28684
11.6268,27840
11.6325,29371
11.6383,27385
11.644,29622
11.6497,28551
11.6554,28339
11.6612,26595
11.6669,30447
11.6726,27849
11.6783,26733
11.684,29149
11.6898,29075
11.6955,28860
11.7012,25939
11.7069,28481
11.7127,29017
11.7184,28082
11.7241,27722
11.7298,28279
11.7355,28101
11.7413,27458
11.747,27765
11.7527,27525
11.7584,25827
11.7642,26640
11.7699,25730
11.7756,29352
11.7813,28356
11.787,28961
11.7928,27970
11.7985,27107
11.8042,27098
11.8099,27267
11.8157,27264
11.8214,26661
11.8271,27801
11.8328,27064
11.8385,27315
11.8443,29075
11.85,28470
11.8557,28517
11.8614,27096
11.8671,26548
11.8729,27511
11.8786,29632
11.8843,30809
11.89,29191
11.8958,26780
11.9015,26999
11.9072,29514
11.9129,28415
11.9186,28252
11.9244,28211
11.9301,27668
11.9358,29019
11.9415,28373
11.9473,26735
11.953,25115
11.9587,29132
11.9644,27604
11.9701,28902
11.9759,26747
11.9816,27474
11.9873,26269
11.993,26271
11.9988,28818
12.0045,24972
12.0102,25638
12.0159,28305
12.0216,28223
12.0274,26742
12.0331,25547
12.0388,27189
12.0445,25856
12.0503,27954
12.056,28942
12.0617,28722
12.0674,26133
12.0731,25698
12.0789,29718
12.0846,28330
12.0903,28051
12.096,26137
12.1018,25798
12.1075,27926
12.1132,28498
12.1189,28284
12.1246,26756
12.1304,26442
12.1361,27635
12.1418,27014
12.1475,28444
12.1532,28482
12.159,27301
12.1647,28073
12.1704,27556
12.1761,29688
12.1819,26151
12.1876,27007
12.1933,26811
12.199,27193
12.2047,29377
12.2105,28116
12.2162,29319
12.2219,28057
12.2276,26433
12.2334,27849
12.2391,27196
12.2448,28428
12.2505,27468
12.2562,27781
12.262,28999
12.2677,27181
12.2734,27126
12.2791,26454
12.2849,26909
12.2906,27396
12.2963,27399
12.302,29102
12.3077,29210
12.3135,26330
12.3192,28315
12.3249,28121
12.3306,28538
12.3364,27616
12.3421,28745
12.3478,29566
12.3535,27977
12.3592,27085
12.365,27470
12.3707,27489
12.3764,28238
12.3821,27428
12.3878,29161
12.3936,27644
12.3993,28847
12.405,27538
12.4107,28806
12.4165,28849
12.4222,26259
12.4279,27103
12.4336,27206
12.4393,27663
12.4451,28121
12.4508,28435
12.4565,29067
12.4622,26973
12.468,28718
12.4737,27203
12.4794,27896
12.4851,27050
12.4908,28003
12.4966,28610
12.5023,27932
12.508,28149
12.5137,28327
12.5195,27232
12.5252,29083
12.5309,28096
12.5366,30072
12.5423,29196
12.5481,28918
12.5538,27951
12.5595,27003
12.5652,28585
12.571,27925
12.5767,27602
12.5824,29182
12.5881,29224
12.5938,28749
12.5996,28268
12.6053,29781
12.611,29963
12.6167,28879
12.6224,29103
12.6282,29740
12.6339,29062
12.6396,27556
12.6453,29519
12.6511,30261
12.6568,30838
12.6625,29846
12.6682,30614
12.6739,29658
12.6797,28656
12.6854,30194
12.6911,28596
12.6968,29801
12.7026,29124
12.7083,30353
12.714,30023
12.7197,27516
12.7254,28021
12.7312,30598
12.7369,31691
12.7426,31169
12.7483,29594
12.7541,29228
12.7598,29344
12.7655,29680
12.7712,33041
12.7769,29086
12.7827,29411
12.7884,29389
12.7941,31582
12.7998,30823
12.8056,31032
12.8113,30088
12.817,30254
12.8227,32730
12.8284,30609
12.8342,32378
12.8399,29393
12.8456,31521
12.8513,29806
12.8571,31448
12.8628,32837
12.8685,32079
12.8742,30436
12.8799,32788
12.8857,32914
12.8914,33176
12.8971,31998
12.9028,30425
12.9085,31024
12.9143,31370
12.92,31696
12.9257,32496
12.9314,32107
12.9372,32928
12.9429,32250
12.9486,30427
12.9543,30970
12.96,29589
12.9658,30219
12.9715,33454
12.9772,30864
12.9829,31312
12.9887,31058
12.9944,32598
13.0001,32983
13.0058,33500
13.0115,30863
13.0173,32259
13.023,32091
13.0287,33826
13.0344,33335
13.0402,31849
13.0459,32274
13.0516,32103
13.0573,32258
13.063,32999
13.0688,33499
13.0745,32574
13.0802,34205
13.0859,34292
13.0917,33083
13.0974,33819
13.1031,35620
13.1088,33304
13.1145,33773
13.1203,33167
13.126,34202
13.1317,34714
13.1374,37529
13.1431,34548
13.1489,35974
13.1546,36102
13.1603,36733
13.166,38713
13.1718,35688
13.1775,39084
13.1832,38025
13.1889,38229
13.1946,40788
13.2004,40142
13.2061,39795
13.2118,39667
13.2175,40242
13.2233,39410
13.229,40220
13.2347,40206
13.2404,37485
13.2461,39701
13.2519,40465
13.2576,38009
13.2633,40803
13.269,40277
13.2748,38053
13.2805,39040
13.2862,40946
13.2919,39817
13.2976,40047
13.3034,39069
13.3091,42050
13.3148,40539
13.3205,39534
13.3263,40495
13.332,40034
13.3377,42639
13.3434,42449
13.3491,43417
13.3549,43108
13.3606,44133
13.3663,43181
13.372,43525
13.3777,44226
13.3835,44995
13.3892,42270
13.3949,44505
13.4006,44312
13.4064,44065
13.4121,45244
13.4178,46070
13.4235,44560
13.4292,46897
13.435,45788
13.4407,47150
13.4464,43751
13.4521,44380
13.4579,44638
13.4636,45790
13.4693,46428
13.475,47167
13.4807,47401
13.4865,46540
13.4922,48586
13.4979,46503
13.5036,46159
13.5094,46879
13.5151,49208
13.5208,48086
13.5265,48869
13.5322,46331
13.538,47570
13.5437,48859
13.5494,47314
13.5551,48608
13.5609,51025
13.5666,48678
13.5723,48449
13.578,47973
13.5837,48138
13.5895,50513
13.5952,48584
13.6009,49082
13.6066,49872
13.6124,49924
13.6181,50419
13.6238,51255
13.6295,49622
13.6352,48907
13.641,51090
13.6467,50464
13.6524,49477
13.6581,51098
13.6638,51430
13.6696,51658
13.6753,51175
13.681,51438
13.6867,54114
13.6925,53866
13.6982,52862
13.7039,50805
13.7096,53361
13.7153,51347
13.7211,52528
13.7268,54251
13.7325,54417
13.7382,53005
13.744,55031
13.7497,54816
13.7554,56230
13.7611,57641
13.7668,58412
13.7726,56822
13.7783,55774
13.784,58584
13.7897,58296
13.7955,59800
13.8012,56220
13.8069,57351
13.8126,58600
13.8183,58807
13.8241,58152
13.8298,61838
13.8355,58164
13.8412,60765
13.847,58094
13.8527,60134
13.8584,60506
13.8641,63015
13.8698,64361
13.8756,64694
13.8813,64161
13.887,66008
13.8927,66402
13.8984,68015
13.9042,65142
13.9099,65577
13.9156,65426
13.9213,67602
13.9271,65349
13.9328,64619
13.9385,65077
13.9442,65134
13.9499,66985
13.9557,64743
13.9614,65803
13.9671,68117
13.9728,69435
13.9786,68954
13.9843,66763
13.99,68803
13.9957,67002
14.0014,68671
14.0072,71348
14.0129,69617
14.0186,70087
14.0243,69936
14.0301,70181
14.0358,72593
14.0415,72431
14.0472,70510
14.0529,69007
14.0587,68439
14.0644,70084
14.0701,69341
14.0758,69844
14.0816,70110
14.0873,73152
14.093,72681
14.0987,75665
14.1044,74106
14.1102,73595
14.1159,75160
14.1216,74576
14.1273,72832
14.133,73170
14.1388,73563
14.1445,74419
14.1502,75957
14.1559,74073
14.1617,74552
14.1674,74354
14.1731,77155
14.1788,75696
14.1845,76525
14.1903,75826
14.196,74576
14.2017,75335
14.2074,75265
14.2132,77394
14.2189,76627
14.2246,77395
14.2303,77886
14.236,78114
14.2418,76433
14.2475,77476
14.2532,77375
14.2589,77973
14.2647,80305
14.2704,78533
14.2761,78300
14.2818,80860
14.2875,76003
14.2933,81085
14.299,80134
14.3047,80672
14.3104,80886
14.3162,83383
14.3219,81704
14.3276,84418
14.3333,85124
14.339,81959
14.3448,81827
14.3505,87018
14.3562,84257
14.3619,85262
14.3677,85945
14.3734,88875
14.3791,85492
14.3848,83046
14.3905,87306
14.3963,87197
14.402,87328
14.4077,88447
14.4134,89291
14.4191,88965
14.4249,90900
14.4306,88698
14.4363,89516
14.442,93017
14.4478,93213
14.4535,91390
14.4592,91604
14.4649,93146
14.4706,92944
14.4764,90122
14.4821,92880
14.4878,94583
14.4935,93380
14.4993,96812
14.505,92257
14.5107,95136
14.5164,94195
14.5221,95555
14.5279,95585
14.5336,92596
14.5393,97366
14.545,98404
14.5508,97564
14.5565,100156
14.5622,97728
14.5679,97747
14.5736,101516
14.5794,99527
14.5851,101236
14.5908,100203
14.5965,98959
14.6023,101931
14.608,99893
14.6137,107251
14.6194,101818
14.6251,105035
14.6309,105676
14.6366,103056
14.6423,103176
14.648,101572
14.6537,106607
14.6595,103743
14.6652,104609
14.6709,106634
14.6766,109390
14.6824,107690
14.6881,107985
14.6938,103172
14.6995,106858
14.7052,108410
14.711,106793
14.7167,109487
14.7224,107794
14.7281,107659
14.7339,111789
14.7396,109279
14.7453,110941
14.751,110127
14.7567,109405
14.7625,116365
14.7682,113673
14.7739,116927
14.7796,112594
14.7854,113874
14.7911,114125
14.7968,115386
14.8025,116761
14.8082,120402
14.814,114572
14.8197,114867
14.8254,118526
14.8311,118789
14.8369,120387
14.8426,120919
14.8483,120967
14.854,122365
14.8597,116997
14.8655,119725
14.8712,125070
14.8769,121764
14.8826,122959
14.8883,121960
14.8941,122569
14.8998,128438
14.9055,122063
14.9112,119867
14.917,119626
14.9227,125760
14.9284,126394
14.9341,126485
14.9398,131584
14.9456,126884
14.9513,125796
14.957,129053
14.9627,128342
14.9685,131498
14.9742,126769
14.9799,134465
14.9856,130436
14.9913,134696
14.9971,134086
15.0028,134516
15.0085,134269
15.0142,134481
15.02,136425
15.0257,136455
15.0314,134828
15.0371,136892
15.0428,139957
15.0486,137607
15.0543,135426
15.06,137951
15.0657,138513
15.0715,142188
15.0772,139087
15.0829,137908
15.0886,143302
15.0943,138373
15.1001,144619
15.1058,140517
15.1115,143597
15.1172,143591
15.123,142143
15.1287,146209
15.1344,146314
15.1401,149071
15.1458,148949
15.1516,148127
15.1573,149647
15.163,149932
15.1687,150413
15.1744,153094
15.1802,151812
15.1859,152488
15.1916,151345
15.1973,153320
15.2031,152507
15.2088,156882
15.2145,154967
15.2202,156685
15.2259,158863
15.2317,158518
15.2374,158047
15.2431,156805
15.2488,157032
15.2546,158232
15.2603,162252
15.266,158220
15.2717,164145
15.2774,164796
15.2832,167730
15.2889,169863
15.2946,170203
15.3003,169181
15.3061,171467
15.3118,170550
15.3175,172593
15.3232,168919
15.3289,169112
15.3347,167442
15.3404,166444
15.3461,167627
15.3518,167431
15.3576,174649
15.3633,170151
15.369,173874
15.3747,177414
15.3804,174807
15.3862,176309
15.3919,175707
15.3976,178345
15.4033,181744
15.409,181568
15.4148,181327
15.4205,184487
15.4262,179375
15.4319,184553
15.4377,182540
15.4434,179492
15.4491,183372
15.4548,183165
15.4605,184335
15.4663,183081
15.472,188578
15.4777,184022
15.4834,190025
15.4892,189685
15.4949,186488
15.5006,186567
15.5063,191273
15.512,188808
15.5178,189733
15.5235,190927
15.5292,192513
15.5349,191111
15.5407,187472
15.5464,193416
15.5521,193554
15.5578,192525
15.5635,192796
15.5693,193134
15.575,195154
15.5807,197641
15.5864,195868
15.5922,196193
15.5979,199008
15.6036,194800
15.6093,193944
15.615,193144
15.6208,199342
15.6265,202508
15.6322,203477
15.6379,204981
15.6436,202691
15.6494,210248
15.6551,207782
15.6608,207150
15.6665,209298
15.6723,207877
15.678,212627
15.6837,207237
15.6894,212539
15.6951,210457
15.7009,204659
15.7066,214028
15.7123,213493
15.718,218413
15.7238,215170
15.7295,218465
15.7352,217316
15.7409,219185
15.7466,219270
15.7524,222770
15.7581,220757
15.7638,225860
15.7695,229424
15.7753,224292
15.781,223517
15.7867,227865
15.7924,230223
15.7981,230697
15.8039,226677
15.8096,228859
15.8153,234518
15.821,228338
15.8268,232095
15.8325,231105
15.8382,234816
15.8439,234811
15.8496,233445
15.8554,233222
15.8611,240624
15.8668,242495
15.8725,240339
15.8783,244838
15.884,242500
15.8897,243232
15.8954,240562
15.9011,247093
15.9069,244507
15.9126,241984
15.9183,246444
15.924,249335
15.9297,250919
15.9355,248154
15.9412,255529
15.9469,253245
15.9526,254979
15.9584,255579
15.9641,249452
15.9698,255342
15.9755,253757
15.9812,256359
15.987,253726
15.9927,259169
15.9984,257492
16.0041,255088
16.0099,258536
16.0156,257155
16.0213,259548
16.027,261756
16.0327,258908
16.0385,259985
16.0442,261871
16.0499,259200
16.0556,263398
16.0614,262920
16.0671,268933
16.0728,264918
16.0785,266469
16.0842,269739
16.09,267270
16.0957,268347
16.1014,269534
16.1071,268547
16.1129,279577
16.1186,279802
16.1243,274451
16.13,281508
16.1357,275895
16.1414,277540
16.1472,279938
16.1529,278074
16.1586,279691
16.1643,282778
16.1701,281970
16.1758,288663
16.1815,280346
16.1872,283066
16.193,291013
16.1987,297653
16.2044,292643
16.2101,289888
16.2158,284787
16.2216,292293
16.2273,297081
16.233,295040
16.2387,296632
16.2445,293405
16.2502,293947
16.2559,298488
16.2616,301935
16.2673,303799
16.2731,298223
16.2788,306155
16.2845,304844
16.2902,305146
16.296,304487
16.3017,305770
16.3074,305802
16.3131,308538
16.3188,308580
16.3245,308522
16.3303,313297
16.336,312086
16.3417,314405
16.3474,321439
16.3532,321485
16.3589,320104
16.3646,317774
16.3703,317854
16.376,327896
16.3818,323826
16.3875,330595
16.3932,330125
16.3989,330277
16.4047,329450
16.4104,337677
16.4161,330344
16.4218,337362
16.4276,341264
16.4333,339477
16.439,339688
16.4447,345352
16.4504,342570
16.4562,346169
16.4619,348041
16.4676,345744
16.4733,346706
16.4791,343105
16.4848,351064
16.4905,343156
16.4962,344692
16.5019,345869
16.5077,348793
16.5134,347700
16.5191,358134
16.5248,358704
16.5306,354644
16.5363,360562
16.542,357617
16.5477,361605
16.5534,357836
16.5591,361340
16.5649,362844
16.5706,360390
16.5763,362792
16.582,360748
16.5878,362337
16.5935,359823
16.5992,361832
16.6049,365647
16.6107,364885
16.6164,372487
16.6221,375639
16.6278,374865
16.6336,380133
16.6393,385902
16.645,383173
16.6507,383749
16.6564,386883
16.6622,392950
16.6679,395622
16.6736,392768
16.6793,391866
16.685,388094
16.6908,393468
16.6965,396347
16.7022,404922
16.7079,403506
16.7137,399315
16.7194,406738
16.7251,412410
16.7308,400491
16.7365,403252
16.7423,405787
16.748,416020
16.7537,417328
16.7594,421435
16.7651,423477
16.7709,416515
16.7766,417798
16.7823,423602
16.788,425252
16.7937,428822
16.7995,426857
16.8052,423632
16.8109,433299
16.8166,427172
16.8224,434565
16.8281,432147
16.8338,429651
16.8395,433387
16.8453,430396
16.851,443305
16.8567,443786
16.8624,446352
16.8682,449510
16.8739,452316
16.8796,445281
16.8853,455029
16.891,455378
16.8968,459151
16.9025,462354
16.9082,465616
16.9139,464883
16.9196,470031
16.9254,468517
16.9311,470088
16.9368,477082
16.9425,472086
16.9483,467919
16.954,473547
16.9597,479714
16.9654,470987
16.9711,485858
16.9769,487464
16.9826,476331
16.9883,488336
16.994,492009
16.9997,490789
17.0055,496123
17.0112,502637
17.0169,505701
17.0226,503220
17.0284,501893
17.0341,504876
17.0398,504525
17.0455,505745
17.0513,500231
17.057,502285
17.0627,515287
17.0684,516370
17.0741,517310
17.0799,522696
17.0856,520014
17.0913,516389
17.097,520531
17.1028,518706
17.1085,522714
17.1142,521663
17.1199,530209
17.1256,532138
17.1314,532285
17.1371,535382
17.1428,533475
17.1485,525931
17.1543,525237
17.16,527481
17.1657,529845
17.1714,531084
17.1771,533406
17.1828,534021
17.1886,542640
17.1943,537623
17.2,549666
17.2057,547624
17.2115,543512
17.2172,556210
17.2229,543940
17.2286,555878
17.2343,549491
17.2401,559885
17.2458,562994
17.2515,569228
17.2572,565418
17.263,573557
17.2687,569857
17.2744,573887
17.2801,562127
17.2859,567421
17.2916,568815
17.2973,568503
17.303,568399
17.3087,569434
17.3145,577701
17.3202,570488
17.3259,587689
17.3316,578867
17.3374,578585
17.3431,580107
17.3488,589148
17.3545,603578
17.3602,596341
17.366,598498
17.3717,603787
17.3774,602582
17.3831,610370
17.3889,614341
17.3946,612796
17.4003,616123
17.406,617780
17.4117,624481
17.4174,622526
17.4232,633051
17.4289,635432
17.4346,635734
17.4403,629620
17.4461,636074
17.4518,632813
17.4575,630875
17.4632,636623
17.469,638563
17.4747,642387
17.4804,636627
17.4861,641995
17.4918,645169
17.4976,648034
17.5033,650036
17.509,645651
17.5147,650702
17.5205,652049
17.5262,660181
17.5319,658906
17.5376,656279
17.5433,656639
17.5491,669570
17.5548,655904
17.5605,676572
17.5662,668811
17.572,670807
17.5777,674840
17.5834,680765
17.5891,667185
17.5948,666865
17.6006,676275
17.6063,680351
17.612,676668
17.6177,682069
17.6235,690571
17.6292,689264
17.6349,689668
17.6406,686051
17.6463,690650
17.652,691071
17.6578,690171
17.6635,696486
17.6692,682708
17.6749,691985
17.6807,693164
17.6864,678359
17.6921,683418
17.6978,686828
17.7036,685145
17.7093,695970
17.715,693053
17.7207,687349
17.7264,691307
17.7322,693635
17.7379,695829
17.7436,699770
17.7493,691847
17.7551,689286
17.7608,701666
17.7665,705856
17.7722,703013
17.7779,709548
17.7837,702497
17.7894,712895
17.7951,714472
17.8008,695876
17.8066,699803
17.8123,696647
17.818,697544
17.8237,706781
17.8294,699399
17.8352,700028
17.8409,700795
17.8466,690874
17.8523,704548
17.8581,701849
17.8638,700203
17.8695,704921
17.8752,705379
17.8809,699638
17.8866,705196
17.8924,703083
17.8981,701699
17.9038,701137
17.9095,707333
17.9153,709006
17.921,716711
17.9267,710720
17.9324,708217
17.9382,703096
17.9439,719566
17.9496,717192
17.9553,715171
17.961,716440
17.9668,708037
17.9725,720384
17.9782,716544
17.9839,727550
17.9897,709963
17.9954,716141
18.0011,716218
18.0068,721629
18.0125,729589
18.0183,725512
18.024,727372
18.0297,732999
18.0354,732555
18.0412,729434
18.0469,728724
18.0526,733723
18.0583,723810
18.064,729734
18.0697,720918
18.0755,736254
18.0812,716882
18.0869,724089
18.0927,720897
18.0984,734954
18.1041,726781
18.1098,707661
18.1155,715305
18.1213,714893
18.127,719428
18.1327,725376
18.1384,728901
18.1442,725785
18.1499,732625
18.1556,735403
18.1613,735469
18.167,730352
18.1728,732100
18.1785,736281
18.1842,730876
18.1899,732219
18.1956,727455
18.2014,722486
18.2071,724575
18.2128,740206
18.2185,740078
18.2243,748143
18.23,736647
18.2357,742941
18.2414,746243
18.2471,744878
18.2529,740472
18.2586,750698
18.2643,751546
18.27,745274
18.2758,744272
18.2815,756821
18.2872,747821
18.2929,739409
18.2986,741094
18.3043,752119
18.3101,750268
18.3158,742978
18.3215,747793
18.3272,755186
18.333,743610
18.3387,744525
18.3444,740391
18.3501,745350
18.3559,742289
18.3616,747835
18.3673,752108
18.373,743562
18.3788,738191
18.3845,740239
18.3902,737785
18.3959,738563
18.4016,740010
18.4074,745767
18.4131,737354
18.4188,746641
18.4245,743255
18.4302,738037
18.436,735761
18.4417,739053
18.4474,746285
18.4531,740198
18.4589,735187
18.4646,733723
18.4703,747334
18.476,758452
18.4817,755266
18.4875,751821
18.4932,749767
18.4989,749983
18.5046,751997
18.5104,753724
18.5161,763477
18.5218,754934
18.5275,745180
18.5332,742758
18.539,750400
18.5447,760014
18.5504,760655
18.5561,751500
18.5619,760917
18.5676,760436
18.5733,761488
18.579,752342
18.5847,758774
18.5905,751017
18.5962,751182
18.6019,749337
18.6076,755452
18.6134,756625
18.6191,759038
18.6248,751078
18.6305,760928
18.6362,753311
18.642,761823
18.6477,750879
18.6534,752617
18.6591,763606
18.6649,765454
18.6706,769102
18.6763,763717
18.682,766251
18.6877,782911
18.6935,779620
18.6992,768819
18.7049,769481
18.7106,762996
18.7163,764681
18.7221,775058
18.7278,771140
18.7335,773908
18.7392,774577
18.7449,774833
18.7507,777966
18.7564,774855
18.7621,790115
18.7678,785922
18.7736,776702
18.7793,776559
18.785,779028
18.7907,765540
18.7965,781995
18.8022,774509
18.8079,775381
18.8136,771705
18.8193,764426
18.8251,781007
18.8308,780908
18.8365,762339
18.8422,782171
18.848,775605
18.8537,777351
18.8594,787531
18.8651,790605
18.8708,773759
18.8766,779595
18.8823,786430
18.888,783448
18.8937,786659
18.8995,788890
18.9052,779055
18.9109,781449
18.9166,788441
18.9223,778807
18.9281,785602
18.9338,780006
18.9395,788889
18.9452,790408
18.9509,795179
18.9567,797719
18.9624,788451
18.9681,786591
18.9738,789469
18.9796,791299
18.9853,809565
18.991,802470
18.9967,804548
19.0024,799750
19.0082,806442
19.0139,802901
19.0196,805774
19.0253,798267
19.0311,794706
19.0368,796735
19.0425,796866
19.0482,800805
19.0539,796616
19.0597,804501
19.0654,806705
19.0711,797492
19.0768,797702
19.0826,799601
19.0883,800325
19.094,797059
19.0997,794424
19.1054,794392
19.1112,794683
19.1169,786211
19.1226,787819
19.1283,796875
19.1341,786806
19.1398,785184
19.1455,801164
19.1512,796940
19.1569,794285
19.1626,795246
19.1684,787809
19.1741,779371
19.1798,802410
19.1855,798816
19.1913,805734
19.197,800093
19.2027,786714
19.2084,792155
19.2142,784378
19.2199,794982
19.2256,794717
19.2313,794905
19.237,797405
19.2428,785871
19.2485,779184
19.2542,787269
19.2599,780780
19.2657,792585
19.2714,787487
19.2771,791903
19.2828,793998
19.2885,790110
19.2943,794711
19.3,792208
19.3057,787446
19.3114,778706
19.3172,791199
19.3229,790966
19.3286,794947
19.3343,799678
19.34,795680
19.3458,790687
19.3515,786959
19.3572,798402
19.3629,802696
19.3687,791039
19.3744,795629
19.3801,800290
19.3858,800630
19.3915,793963
19.3973,785154
19.403,781188
19.4087,782828
19.4144,778746
19.4202,793885
19.4259,783443
19.4316,783571
19.4373,789944
19.443,789537
19.4488,781599
19.4545,782145
19.4602,790283
19.4659,779932
19.4716,782472
19.4774,778589
19.4831,783842
19.4888,787506
19.4945,780802
19.5003,793244
19.506,786482
19.5117,792599
19.5174,795211
19.5231,782533
19.5289,780095
19.5346,778206
19.5403,774292
19.546,768808
19.5518,772478
19.5575,778817
19.5632,780428
19.5689,779654
19.5746,780451
19.5803,783855
19.5861,785338
19.5918,781720
19.5975,785257
19.6032,782536
19.609,775427
19.6147,783267
19.6204,776304
19.6261,791827
19.6319,778791
19.6376,780649
19.6433,782667
19.649,778519
19.6548,776109
19.6605,782153
19.6662,778033
19.6719,780736
19.6776,777262
19.6834,791445
19.6891,785318
19.6948,767658
19.7005,779181
19.7062,796079
19.712,789397
19.7177,795661
19.7234,788926
19.7291,800560
19.7349,791745
19.7406,790614
19.7463,798125
19.752,788960
19.7577,793312
19.7635,794716
19.7692,790247
19.7749,788315
19.7806,787025
19.7864,792745
19.7921,793677
19.7978,798113
19.8035,794780
19.8092,786836
19.815,785933
19.8207,786372
19.8264,790251
19.8321,793539
19.8379,786654
19.8436,787452
19.8493,789370
19.855,791860
19.8607,791074
19.8665,799049
19.8722,800165
19.8779,799175
19.8836,794186
19.8894,796318
19.8951,790670
19.9008,797068
19.9065,795097
19.9122,793604
19.918,799565
19.9237,797390
19.9294,804152
19.9351,796817
19.9408,812571
19.9466,792601
19.9523,790998
19.958,797845
19.9637,806351
19.9695,800774
19.9752,804616
19.9809,807812
19.9866,807582
19.9923,813331
19.9981,804080
20.0038,805154
20.0095,803745
20.0152,791429
20.021,800229
20.0267,801481
20.0324,805269
20.0381,800938
20.0438,812911
20.0496,819542
20.0553,815903
20.061,822282
20.0667,816956
20.0725,804880
20.0782,807180
20.0839,803696
20.0896,810761
20.0953,807904
20.1011,808896
20.1068,807952
20.1125,821617
20.1182,811717
20.124,804451
20.1297,798449
20.1354,807860
20.1411,816373
20.1468,813008
20.1526,817285
20.1583,820627
20.164,820629
20.1697,811912
20.1755,817015
20.1812,815136
20.1869,814143
20.1926,811338
20.1983,816785
20.2041,816710
20.2098,809107
20.2155,820645
20.2212,803117
20.2269,816100
20.2327,816019
20.2384,804957
20.2441,815672
20.2498,819356
20.2555,810512
20.2613,814711
20.267,823031
20.2727,824121
20.2784,827671
20.2842,827469
20.2899,818676
20.2956,824199
20.3013,824203
20.3071,809296
20.3128,819330
20.3185,818079
20.3242,823834
20.3299,813944
20.3357,810331
20.3414,828239
20.3471,805863
20.3528,833751
20.3586,830174
20.3643,823798
20.37,829817
20.3757,833321
20.3814,844393
20.3872,832045
20.3929,829152
20.3986,828239
20.4043,836832
20.4101,836440
20.4158,835789
20.4215,827990
20.4272,826880
20.4329,822079
20.4387,827344
20.4444,830698
20.4501,825188
20.4558,829589
20.4615,831539
20.4673,815133
20.473,815103
20.4787,821138
20.4844,817026
20.4902,829210
