C:\MSDCHEM\1\DATA\JAMES C\20180125 LACTONE WITH BME AND HYDROXYLAMINE\MTBE Blank.d 25 Jan 18   3:18 pm
Start of data points
3.09267,60458
3.09838,62081
3.1041,62637
3.10983,63313
3.11555,62284
3.12127,63805
3.12698,62257
3.13272,67832
3.13843,64692
3.14415,67546
3.14988,65190
3.1556,65412
3.16132,65495
3.16705,68287
3.17277,67419
3.17848,67290
3.18422,70799
3.18993,68369
3.19565,72010
3.20138,69489
3.2071,70109
3.21282,69024
3.21855,70988
3.22427,70581
3.22998,72477
3.23572,71337
3.24143,70407
3.24715,67803
3.25287,65657
3.2586,65413
3.26432,64073
3.27003,61295
3.27577,59129
3.28148,56994
3.2872,54436
3.29293,54778
3.29865,51539
3.30437,50940
3.3101,49461
3.31582,48645
3.32153,44561
3.32727,46529
3.33298,45653
3.3387,41811
3.34443,42550
3.35015,41832
3.35587,42913
3.3616,40421
3.36732,39173
3.37303,39094
3.37875,38520
3.38448,36375
3.3902,36595
3.39592,36660
3.40165,34606
3.40737,35560
3.41308,36980
3.41882,32762
3.42453,32974
3.43025,35103
3.43598,33274
3.4417,33608
3.44742,31497
3.45315,33587
3.45887,30821
3.46458,33347
3.47032,32955
3.47603,31056
3.48175,32247
3.48748,31000
3.4932,29589
3.49892,30984
3.50463,30038
3.51037,29110
3.51608,28884
3.5218,29440
3.52753,29990
3.53325,27443
3.53897,28375
3.5447,28837
3.55042,29092
3.55613,29056
3.56187,28174
3.56758,28479
3.5733,26572
3.57903,27551
3.58475,29101
3.59047,27958
3.5962,26996
3.60192,27857
3.60763,24916
3.61337,26629
3.61908,27653
3.6248,25430
3.63052,25218
3.63625,26293
3.64197,25292
3.64768,25356
3.65342,26564
3.65913,25134
3.66485,25333
3.67058,26029
3.6763,26863
3.68202,26050
3.68775,25874
3.69347,24591
3.69918,23899
3.70492,24172
3.71063,24589
3.71635,25284
3.72208,23367
3.7278,24511
3.73352,24183
3.73925,23351
3.74497,23538
3.75068,23707
3.7564,23107
3.76213,23730
3.76785,24707
3.77357,23061
3.7793,23975
3.78502,23258
3.79073,22998
3.79647,23983
3.80218,22533
3.8079,23712
3.81363,21829
3.81935,22626
3.82507,23394
3.8308,23257
3.83652,23707
3.84223,21972
3.84797,21664
3.85368,21043
3.8594,22724
3.86513,22234
3.87085,22218
3.87657,22083
3.88228,22547
3.88802,21659
3.89373,22311
3.89945,20007
3.90518,22696
3.9109,22195
3.91662,19948
3.92235,21756
3.92807,21451
3.93378,21913
3.93952,21439
3.94523,20080
3.95095,20850
3.95668,20793
3.9624,19839
3.96812,21661
3.97385,20589
3.97957,19770
3.98528,21428
3.99102,19795
3.99673,20306
4.00245,20182
4.00817,19234
4.0139,21056
4.01962,20116
4.02533,20802
4.03107,20523
4.03678,19039
4.0425,20576
4.04823,19049
4.05395,19868
4.05967,19782
4.0654,18463
4.07112,17747
4.07683,18751
4.08257,18917
4.08828,20641
4.094,20095
4.09973,19526
4.10545,18940
4.11117,18685
4.1169,17900
4.12262,19091
4.12833,18669
4.13405,18489
4.13978,18744
4.1455,17928
4.15122,19073
4.15695,19675
4.16267,18646
4.16838,18629
4.17412,18955
4.17983,18462
4.18555,19240
4.19128,18666
4.197,18239
4.20272,18823
4.20845,17842
4.21417,17678
4.21988,17602
4.22562,18757
4.23133,17908
4.23705,18068
4.24278,17867
4.2485,16151
4.25422,17660
4.25993,17438
4.26567,16849
4.27138,17809
4.2771,18063
4.28283,17837
4.28855,17371
4.29427,16916
4.3,17610
4.30572,16644
4.31143,17538
4.31717,16741
4.32288,16835
4.3286,17075
4.33433,17962
4.34005,18291
4.34577,17305
4.3515,16498
4.35722,17865
4.36293,18531
4.36867,17860
4.37438,17060
4.3801,17120
4.38582,17417
4.39155,16796
4.39727,16911
4.40298,16897
4.40872,18118
4.41443,17467
4.42015,15864
4.42588,16781
4.4316,18265
4.43732,17060
4.44305,17527
4.44877,16900
4.45448,15376
4.46022,16098
4.46593,16947
4.47165,16635
4.47738,16161
4.4831,16783
4.48882,16797
4.49455,16472
4.50027,16140
4.50598,16495
4.5117,16665
4.51743,16161
4.52315,15763
4.52887,15216
4.5346,14870
4.54032,16186
4.54603,14349
4.55177,16575
4.55748,16132
4.5632,16141
4.56893,15425
4.57465,15159
4.58037,16266
4.5861,15077
4.59182,15357
4.59753,15676
4.60327,15908
4.60898,14948
4.6147,14118
4.62043,15764
4.62615,16216
4.63187,15505
4.63758,14030
4.64332,15863
4.64903,15923
4.65475,15732
4.66048,14454
4.6662,15348
4.67192,14552
4.67765,14582
4.68337,15574
4.68908,16061
4.69482,16226
4.70053,15875
4.70625,14924
4.71198,15817
4.7177,14314
4.72342,16676
4.72915,14486
4.73487,15130
4.74058,15763
4.74632,16306
4.75203,14833
4.75775,16201
4.76347,15601
4.7692,15137
4.77492,15551
4.78063,15242
4.78637,14078
4.79208,14980
4.7978,13626
4.80353,14827
4.80925,15562
4.81497,14518
4.8207,13948
4.82642,15243
4.83213,14622
4.83787,14663
4.84358,14891
4.8493,15127
4.85503,14936
4.86075,14511
4.86647,15376
4.8722,15433
4.87792,14622
4.88363,14597
4.88935,15164
4.89508,14928
4.9008,14924
4.90652,14267
4.91225,14109
4.91797,14232
4.92368,15323
4.92942,15012
4.93513,15026
4.94085,14612
4.94658,15819
4.9523,13879
4.95802,13437
4.96375,14253
4.96947,13659
4.97518,14115
4.98092,13125
4.98663,14616
4.99235,13596
4.99808,14034
5.0038,13977
5.00952,13883
5.01523,13234
5.02097,14482
5.02668,13582
5.0324,15515
5.03813,14123
5.04385,13764
5.04957,13350
5.0553,15980
5.06102,14033
5.06673,13709
5.07247,13905
5.07818,12253
5.0839,14238
5.08963,14220
5.09535,13882
5.10107,12913
5.1068,14019
5.11252,14043
5.11823,13823
5.12397,13569
5.12968,14693
5.1354,14099
5.14112,14916
5.14685,14419
5.15257,12925
5.15828,14138
5.16402,13585
5.16973,15558
5.17545,13682
5.18118,14367
5.1869,13874
5.19262,13500
5.19835,12823
5.20407,14083
5.20978,13317
5.21552,14243
5.22123,12900
5.22695,14127
5.23268,13332
5.2384,13750
5.24412,13573
5.24985,13963
5.25557,13490
5.26128,13622
5.267,13471
5.27273,14121
5.27845,14076
5.28417,13465
5.2899,12493
5.29562,13000
5.30133,15145
5.30707,13454
5.31278,13967
5.3185,13799
5.32423,13938
5.32995,12931
5.33567,13571
5.3414,13035
5.34712,14987
5.35283,14302
5.35857,14652
5.36428,13216
5.37,13230
5.37573,13337
5.38145,13556
5.38717,13600
5.39288,12728
5.39862,14379
5.40433,14064
5.41005,14664
5.41578,14578
5.4215,13163
5.42722,13256
5.43295,13054
5.43867,14090
5.44438,14969
5.45012,14346
5.45583,14330
5.46155,12586
5.46728,15061
5.473,13012
5.47872,13616
5.48445,13412
5.49017,13802
5.49588,13734
5.50162,12986
5.50733,13676
5.51305,13104
5.51877,14999
5.5245,14030
5.53022,12560
5.53593,13356
5.54167,13613
5.54738,12957
5.5531,13582
5.55883,13867
5.56455,13503
5.57027,12909
5.576,14213
5.58172,14274
5.58743,13108
5.59317,14185
5.59888,12559
5.6046,12678
5.61033,13113
5.61605,13510
5.62177,12784
5.6275,13169
5.63322,13584
5.63893,13713
5.64465,14293
5.65038,13409
5.6561,14008
5.66182,13241
5.66755,13508
5.67327,12346
5.67898,13492
5.68472,13200
5.69043,12516
5.69615,13338
5.70188,13658
5.7076,13130
5.71332,13820
5.71905,13792
5.72477,12668
5.73048,13136
5.73622,13533
5.74193,13023
5.74765,14844
5.75338,12083
5.7591,12890
5.76482,12495
5.77053,12981
5.77627,12889
5.78198,13103
5.7877,12738
5.79343,13599
5.79915,12526
5.80487,13185
5.8106,12594
5.81632,11453
5.82203,13099
5.82777,12597
5.83348,13431
5.8392,13856
5.84493,13653
5.85065,13476
5.85637,13882
5.8621,12383
5.86782,12771
5.87353,13338
5.87927,13843
5.88498,12540
5.8907,12932
5.89642,13208
5.90215,12809
5.90787,12897
5.91358,13350
5.91932,13435
5.92503,13008
5.93075,13149
5.93648,12037
5.9422,13680
5.94792,11848
5.95365,12165
5.95937,12909
5.96508,13088
5.97082,14019
5.97653,13531
5.98225,12860
5.98798,12025
5.9937,13355
5.99942,13169
6.00515,12420
6.01087,12090
6.01658,12757
6.0223,11995
6.02803,12742
6.03375,13086
6.03947,12737
6.0452,12758
6.05092,13140
6.05663,12930
6.06237,14287
6.06808,12621
6.0738,12847
6.07953,12344
6.08525,12855
6.09097,11139
6.0967,12863
6.10242,12503
6.10813,11872
6.11387,12740
6.11958,12470
6.1253,11717
6.13103,14389
6.13675,13151
6.14247,12544
6.14818,12198
6.15392,11845
6.15963,13001
6.16535,12815
6.17108,12314
6.1768,12760
6.18252,12451
6.18825,13340
6.19397,12839
6.19968,12215
6.20542,13112
6.21113,12433
6.21685,13533
6.22258,13779
6.2283,12913
6.23402,12486
6.23975,13371
6.24547,11914
6.25118,12040
6.25692,11962
6.26263,13485
6.26835,11583
6.27407,13216
6.2798,12254
6.28552,13630
6.29123,13464
6.29697,13806
6.30268,12611
6.3084,13429
6.31413,12415
6.31985,13912
6.32557,12681
6.3313,12576
6.33702,12822
6.34273,13605
6.34847,12537
6.35418,11585
6.3599,12756
6.36563,12940
6.37135,12424
6.37707,13145
6.3828,12777
6.38852,12798
6.39423,12543
6.39995,13177
6.40568,12059
6.4114,12586
6.41712,12757
6.42285,12455
6.42857,12654
6.43428,13617
6.44002,12257
6.44573,12506
6.45145,12951
6.45718,13418
6.4629,11476
6.46862,12467
6.47435,12080
6.48007,12075
6.48578,12722
6.49152,12776
6.49723,12822
6.50295,11864
6.50868,12027
6.5144,12244
6.52012,12615
6.52583,12451
6.53157,13893
6.53728,11960
6.543,12765
6.54873,12249
6.55445,12512
6.56017,11725
6.5659,11770
6.57162,12426
6.57733,13439
6.58307,12372
6.58878,11506
6.5945,12785
6.60023,13394
6.60595,13464
6.61167,13777
6.6174,13996
6.62312,13164
6.62883,12653
6.63457,12128
6.64028,11644
6.646,12560
6.65173,12007
6.65745,12679
6.66317,13290
6.66888,13225
6.67462,13231
6.68033,13171
6.68605,13031
6.69178,12319
6.6975,13909
6.70322,12270
6.70895,12222
6.71467,13329
6.72038,13541
6.72612,14077
6.73183,12167
6.73755,13012
6.74328,13179
6.749,12108
6.75472,13203
6.76045,12071
6.76617,13382
6.77188,14171
6.77762,12599
6.78333,13322
6.78905,14277
6.79477,13325
6.8005,13306
6.80622,12668
6.81193,13196
6.81767,12531
6.82338,12949
6.8291,14404
6.83483,12568
6.84055,12973
6.84627,13349
6.852,13523
6.85772,12594
6.86343,13945
6.86917,12422
6.87488,12446
6.8806,12544
6.88633,13243
6.89205,12958
6.89777,12423
6.9035,12897
6.90922,13426
6.91493,13063
6.92065,13190
6.92638,11607
6.9321,12571
6.93782,13039
6.94355,12169
6.94927,11774
6.95498,12029
6.96072,13529
6.96643,13738
6.97215,12387
6.97788,13115
6.9836,12893
6.98932,12840
6.99505,11447
7.00077,13298
7.00648,12167
7.01222,12267
7.01793,13466
7.02365,12197
7.02938,12592
7.0351,12551
7.04082,13473
7.04653,13082
7.05227,13741
7.05798,13118
7.0637,13365
7.06943,12863
7.07515,12411
7.08087,13382
7.0866,12881
7.09232,12743
7.09803,13474
7.10377,12575
7.10948,11452
7.1152,12676
7.12093,13263
7.12665,14113
7.13237,14478
7.1381,13810
7.14382,14953
7.14953,15373
7.15527,14145
7.16098,13674
7.1667,12690
7.17242,13962
7.17815,13195
7.18387,12787
7.18958,12816
7.19532,12949
7.20103,13055
7.20675,12182
7.21248,13739
7.2182,13515
7.22392,12387
7.22965,12737
7.23537,13625
7.24108,12773
7.24682,12748
7.25253,12986
7.25825,13071
7.26398,13109
7.2697,13652
7.27542,12497
7.28115,13978
7.28687,12142
7.29258,13665
7.2983,14359
7.30403,15043
7.30975,16074
7.31547,16070
7.3212,15700
7.32692,15391
7.33263,13940
7.33837,13902
7.34408,13980
7.3498,13833
7.35553,13614
7.36125,12211
7.36697,13070
7.3727,12655
7.37842,13881
7.38413,13220
7.38987,14337
7.39558,13434
7.4013,12541
7.40703,13608
7.41275,13626
7.41847,13186
7.42418,12765
7.42992,13684
7.43563,14744
7.44135,13247
7.44708,13101
7.4528,13561
7.45852,13958
7.46425,14019
7.46997,14327
7.47568,13960
7.48142,14685
7.48713,12273
7.49285,12352
7.49858,13879
7.5043,13576
7.51002,14202
7.51575,13874
7.52147,12828
7.52718,13148
7.53292,12868
7.53863,13014
7.54435,13633
7.55007,13963
7.5558,12877
7.56152,12779
7.56723,14723
7.57297,13789
7.57868,13347
7.5844,15035
7.59013,13099
7.59585,13139
7.60157,12807
7.6073,13933
7.61302,12814
7.61873,13923
7.62447,13907
7.63018,12944
7.6359,14623
7.64163,13168
7.64735,12274
7.65307,12743
7.6588,12451
7.66452,12841
7.67023,12788
7.67595,13869
7.68168,12920
7.6874,14487
7.69312,13698
7.69885,13732
7.70457,12982
7.71028,12642
7.71602,12876
7.72173,14390
7.72745,14220
7.73318,15718
7.7389,16823
7.74462,15082
7.75035,13502
7.75607,14780
7.76178,14986
7.76752,14119
7.77323,13331
7.77895,14022
7.78468,12929
7.7904,13146
7.79612,12779
7.80183,14247
7.80757,13738
7.81328,14100
7.819,13576
7.82473,13491
7.83045,14165
7.83617,13188
7.8419,14750
7.84762,14378
7.85333,14915
7.85907,13083
7.86478,14341
7.8705,13807
7.87623,13368
7.88195,14436
7.88767,13614
7.8934,13242
7.89912,14096
7.90483,13363
7.91057,14092
7.91628,14068
7.922,14240
7.92772,13041
7.93345,13937
7.93917,13204
7.94488,14629
7.95062,12714
7.95633,13564
7.96205,13287
7.96778,14424
7.9735,14110
7.97922,14357
7.98495,13896
7.99067,14263
7.99638,13395
8.00212,13486
8.00783,13484
8.01355,13937
8.01928,13239
8.025,13415
8.03072,14776
8.03645,14047
8.04217,14247
8.04788,13206
8.0536,13848
8.05933,13842
8.06505,14295
8.07077,13455
8.0765,13677
8.08222,13712
8.08793,13165
8.09367,13377
8.09938,13802
8.1051,13048
8.11083,15055
8.11655,13998
8.12227,14288
8.128,14459
8.13372,13653
8.13943,13359
8.14517,14489
8.15088,13473
8.1566,14346
8.16233,13629
8.16805,13481
8.17377,13413
8.17948,14976
8.18522,13429
8.19093,13793
8.19665,13933
8.20238,14630
8.2081,13002
8.21382,14413
8.21955,13143
8.22527,14364
8.23098,13800
8.23672,14434
8.24243,14288
8.24815,13986
8.25388,13287
8.2596,14329
8.26532,13322
8.27105,14305
8.27677,14206
8.28248,13987
8.28822,14885
8.29393,14932
8.29965,13193
8.30537,13025
8.3111,15192
8.31682,14331
8.32253,13833
8.32827,14431
8.33398,13807
8.3397,14857
8.34543,14092
8.35115,14075
8.35687,14316
8.3626,13775
8.36832,14316
8.37403,12654
8.37977,13768
8.38548,14955
8.3912,13944
8.39693,14345
8.40265,14620
8.40837,14741
8.4141,13969
8.41982,13473
8.42553,15356
8.43125,13428
8.43698,14502
8.4427,14442
8.44842,14743
8.45415,13687
8.45987,15038
8.46558,15408
8.47132,13856
8.47703,14638
8.48275,14770
8.48848,14866
8.4942,15046
8.49992,14561
8.50565,14458
8.51137,15579
8.51708,14830
8.52282,15677
8.52853,13767
8.53425,14584
8.53998,14660
8.5457,14413
8.55142,13893
8.55713,14851
8.56287,13961
8.56858,15213
8.5743,15499
8.58003,14385
8.58575,15479
8.59147,15176
8.5972,13513
8.60292,16602
8.60863,14176
8.61437,15173
8.62008,16128
8.6258,14926
8.63153,14515
8.63725,14240
8.64297,15751
8.6487,13095
8.65442,14488
8.66013,15388
8.66587,13616
8.67158,13915
8.6773,15097
8.68302,14418
8.68875,15118
8.69447,14827
8.70018,13969
8.70592,14611
8.71163,15363
8.71735,15530
8.72308,14159
8.7288,14855
8.73452,15111
8.74025,14726
8.74597,14089
8.75168,14783
8.75742,13742
8.76313,14181
8.76885,14200
8.77458,14775
8.7803,15790
8.78602,16107
8.79175,14318
8.79747,14402
8.80318,14791
8.8089,14494
8.81463,15942
8.82035,15216
8.82607,15981
8.8318,15613
8.83752,15070
8.84323,15866
8.84897,15094
8.85468,14144
8.8604,16158
8.86613,15339
8.87185,14610
8.87757,14968
8.8833,14993
8.88902,15768
8.89473,15631
8.90047,15563
8.90618,15520
8.9119,15585
8.91763,14988
8.92335,15044
8.92907,14003
8.93478,14942
8.94052,15865
8.94623,14907
8.95195,15181
8.95768,15309
8.9634,15472
8.96912,15156
8.97485,13884
8.98057,15769
8.98628,17029
8.99202,19171
8.99773,18828
9.00345,17027
9.00918,16950
9.0149,17169
9.02062,15611
9.02635,16586
9.03207,16249
9.03778,16371
9.04352,15674
9.04923,15777
9.05495,14694
9.06067,14806
9.0664,14569
9.07212,14789
9.07783,15088
9.08357,15649
9.08928,15111
9.095,16053
9.10073,16957
9.10645,15080
9.11217,15070
9.1179,15131
9.12362,15564
9.12933,15366
9.13507,15615
9.14078,15862
9.1465,15617
9.15223,15334
9.15795,15166
9.16367,15207
9.1694,14797
9.17512,14618
9.18083,15266
9.18655,16287
9.19228,14982
9.198,14807
9.20372,15166
9.20945,15250
9.21517,16694
9.22088,15351
9.22662,17362
9.23233,15435
9.23805,16237
9.24378,16777
9.2495,15004
9.25522,16660
9.26095,15346
9.26667,15990
9.27238,15517
9.27812,15249
9.28383,15923
9.28955,15824
9.29528,14870
9.301,14452
9.30672,15539
9.31243,14648
9.31817,14897
9.32388,16327
9.3296,14585
9.33533,14646
9.34105,15277
9.34677,15414
9.3525,15890
9.35822,15803
9.36393,15881
9.36967,16413
9.37538,16514
9.3811,16187
9.38683,15098
9.39255,17135
9.39827,16529
9.404,14531
9.40972,15159
9.41543,15428
9.42117,16170
9.42688,16863
9.4326,15767
9.43832,16217
9.44405,16370
9.44977,16190
9.45548,16458
9.46122,15193
9.46693,15212
9.47265,15138
9.47838,15451
9.4841,14933
9.48982,16502
9.49555,16107
9.50127,16862
9.50698,15321
9.51272,15729
9.51843,16294
9.52415,15923
9.52988,16237
9.5356,16630
9.54132,15382
9.54705,16196
9.55277,16041
9.55848,16549
9.5642,14595
9.56993,15339
9.57565,16976
9.58137,15994
9.5871,16298
9.59282,16116
9.59853,15675
9.60427,16261
9.60998,15548
9.6157,16291
9.62143,15695
9.62715,16119
9.63287,17375
9.6386,15061
9.64432,16430
9.65003,15859
9.65577,15817
9.66148,15041
9.6672,15568
9.67293,15856
9.67865,15579
9.68437,16057
9.69008,18294
9.69582,15818
9.70153,16463
9.70725,15737
9.71298,15796
9.7187,15564
9.72442,16467
9.73015,17563
9.73587,16181
9.74158,16153
9.74732,15065
9.75303,16708
9.75875,16307
9.76448,16058
9.7702,16923
9.77592,16612
9.78165,16978
9.78737,16774
9.79308,15380
9.79882,16183
9.80453,15069
9.81025,15938
9.81597,15235
9.8217,16080
9.82742,15000
9.83313,16824
9.83887,16025
9.84458,16120
9.8503,16724
9.85603,16591
9.86175,15317
9.86747,15165
9.8732,17129
9.87892,15726
9.88463,15825
9.89037,15385
9.89608,15286
9.9018,16356
9.90753,14867
9.91325,15722
9.91897,15648
9.9247,16174
9.93042,16775
9.93613,16168
9.94185,15743
9.94758,16253
9.9533,15214
9.95902,15202
9.96475,15409
9.97047,16502
9.97618,16553
9.98192,16203
9.98763,15015
9.99335,16882
9.99908,15557
10.0048,16500
10.0105,16242
10.0163,15486
10.022,15545
10.0277,15676
10.0334,16070
10.0391,14896
10.0449,16343
10.0506,16742
10.0563,14998
10.062,15498
10.0677,15452
10.0735,15742
10.0792,15691
10.0849,16325
10.0906,16831
10.0964,16040
10.1021,15803
10.1078,15098
10.1135,14067
10.1192,16217
10.125,15921
10.1307,15790
10.1364,14272
10.1421,15996
10.1479,16947
10.1536,15793
10.1593,16352
10.165,14515
10.1707,15039
10.1765,15265
10.1822,16500
10.1879,16035
10.1936,15944
10.1994,16672
10.2051,15282
10.2108,14825
10.2165,15234
10.2222,15888
10.228,15360
10.2337,15350
10.2394,16697
10.2451,16450
10.2509,15137
10.2566,15386
10.2623,15215
10.268,15604
10.2737,16975
10.2795,15912
10.2852,15399
10.2909,16785
10.2966,15622
10.3024,16272
10.3081,15663
10.3138,15559
10.3195,16790
10.3252,17350
10.331,15681
10.3367,14593
10.3424,16697
10.3481,14970
10.3538,16692
10.3596,15829
10.3653,15641
10.371,16635
10.3767,15370
10.3825,16572
10.3882,17776
10.3939,16226
10.3996,16769
10.4053,16982
10.4111,17126
10.4168,16463
10.4225,16401
10.4282,18072
10.434,18098
10.4397,19088
10.4454,18347
10.4511,19343
10.4568,17766
10.4626,15902
10.4683,16486
10.474,16868
10.4797,18230
10.4855,16827
10.4912,17329
10.4969,17225
10.5026,18038
10.5083,16989
10.5141,15938
10.5198,17313
10.5255,16564
10.5312,17952
10.537,16449
10.5427,16540
10.5484,17625
10.5541,17443
10.5598,18047
10.5656,18251
10.5713,18139
10.577,17223
10.5827,18167
10.5884,16665
10.5942,17486
10.5999,19054
10.6056,18511
10.6113,17725
10.6171,18157
10.6228,17314
10.6285,18152
10.6342,16964
10.6399,18203
10.6457,17296
10.6514,17470
10.6571,18833
10.6628,18625
10.6686,19636
10.6743,17081
10.68,19264
10.6857,16554
10.6914,17766
10.6972,17443
10.7029,16788
10.7086,17739
10.7143,17817
10.7201,16157
10.7258,17160
10.7315,18112
10.7372,17306
10.7429,17348
10.7487,16964
10.7544,16670
10.7601,18276
10.7658,17723
10.7716,18341
10.7773,18053
10.783,18044
10.7887,16446
10.7944,16078
10.8002,17263
10.8059,17101
10.8116,17336
10.8173,17460
10.8231,18373
10.8288,17921
10.8345,16920
10.8402,18485
10.8459,16852
10.8517,17511
10.8574,18797
10.8631,17293
10.8688,18625
10.8745,17350
10.8803,17228
10.886,18231
10.8917,17332
10.8974,16634
10.9032,17471
10.9089,17523
10.9146,17749
10.9203,17783
10.926,17065
10.9318,18469
10.9375,18168
10.9432,18920
10.9489,17896
10.9547,17614
10.9604,17965
10.9661,18020
10.9718,18395
10.9775,17663
10.9833,18304
10.989,18010
10.9947,18820
11.0004,18589
11.0062,18901
11.0119,19176
11.0176,17918
11.0233,17506
11.029,18485
11.0348,18656
11.0405,18209
11.0462,19287
11.0519,17999
11.0577,17842
11.0634,18214
11.0691,18417
11.0748,18262
11.0805,18515
11.0863,18985
11.092,18246
11.0977,20350
11.1034,18521
11.1091,19594
11.1149,19051
11.1206,17523
11.1263,18952
11.132,19485
11.1378,20283
11.1435,21419
11.1492,24221
11.1549,26526
11.1606,28843
11.1664,31520
11.1721,30058
11.1778,30791
11.1835,28175
11.1893,31541
11.195,27574
11.2007,26619
11.2064,27653
11.2121,25603
11.2179,26050
11.2236,27138
11.2293,25173
11.235,25514
11.2408,25045
11.2465,24701
11.2522,23757
11.2579,22539
11.2636,23529
11.2694,22537
11.2751,22051
11.2808,23012
11.2865,23676
11.2923,22068
11.298,22505
11.3037,22230
11.3094,22784
11.3151,22918
11.3209,22133
11.3266,23074
11.3323,21953
11.338,20207
11.3437,21921
11.3495,20449
11.3552,21177
11.3609,21139
11.3666,21021
11.3724,20549
11.3781,20713
11.3838,19578
11.3895,20587
11.3952,20410
11.401,21006
11.4067,19954
11.4124,20754
11.4181,19917
11.4239,21047
11.4296,20096
11.4353,19505
11.441,18927
11.4467,19019
11.4525,20079
11.4582,20467
11.4639,18226
11.4696,19599
11.4754,18829
11.4811,20942
11.4868,18671
11.4925,19581
11.4982,19892
11.504,18923
11.5097,18692
11.5154,19446
11.5211,18162
11.5269,18126
11.5326,18867
11.5383,19236
11.544,18345
11.5497,17909
11.5555,18583
11.5612,19956
11.5669,18307
11.5726,19090
11.5784,17789
11.5841,17996
11.5898,18197
11.5955,18272
11.6012,17793
11.607,18000
11.6127,19203
11.6184,18079
11.6241,18396
11.6298,19026
11.6356,18129
11.6413,17620
11.647,17786
11.6527,18242
11.6585,16684
11.6642,17491
11.6699,17132
11.6756,18384
11.6813,17687
11.6871,18368
11.6928,17323
11.6985,17572
11.7042,17281
11.71,16383
11.7157,17905
11.7214,20485
11.7271,19276
11.7328,19754
11.7386,19102
11.7443,18995
11.75,17327
11.7557,17760
11.7615,17166
11.7672,16173
11.7729,16894
11.7786,16516
11.7843,17583
11.7901,17855
11.7958,16944
11.8015,16713
11.8072,18023
11.813,16190
11.8187,16697
11.8244,18943
11.8301,17279
11.8358,17287
11.8416,16861
11.8473,16721
11.853,17942
11.8587,17009
11.8644,17145
11.8702,17988
11.8759,16938
11.8816,17919
11.8873,17369
11.8931,18463
11.8988,18651
11.9045,17157
11.9102,17514
11.9159,17576
11.9217,17207
11.9274,17969
11.9331,17624
11.9388,17917
11.9446,18782
11.9503,17203
11.956,18809
11.9617,16501
11.9674,17235
11.9732,17796
11.9789,17970
11.9846,18117
11.9903,19478
11.9961,16546
12.0018,18595
12.0075,17947
12.0132,17985
12.0189,18291
12.0247,19247
12.0304,19672
12.0361,20489
12.0418,18965
12.0476,19786
12.0533,19509
12.059,18435
12.0647,19600
12.0704,19382
12.0762,18461
12.0819,19314
12.0876,18748
12.0933,19048
12.099,18797
12.1048,20670
12.1105,20373
12.1162,19792
12.1219,19789
12.1277,20204
12.1334,20067
12.1391,19804
12.1448,19015
12.1505,19946
12.1563,19074
12.162,18139
12.1677,18024
12.1734,19661
12.1792,20813
12.1849,20353
12.1906,20353
12.1963,19899
12.202,20363
12.2078,20930
12.2135,21074
12.2192,20180
12.2249,21568
12.2307,21394
12.2364,21240
12.2421,21033
12.2478,21712
12.2535,21269
12.2593,20020
12.265,21261
12.2707,19977
12.2764,20734
12.2822,21178
12.2879,21260
12.2936,19435
12.2993,22042
12.305,21804
12.3108,19397
12.3165,20333
12.3222,21582
12.3279,21071
12.3337,20040
12.3394,20630
12.3451,20249
12.3508,21529
12.3565,19971
12.3623,18838
12.368,20346
12.3737,19719
12.3794,20134
12.3851,21622
12.3909,20733
12.3966,20400
12.4023,21318
12.408,20588
12.4138,21323
12.4195,23162
12.4252,20369
12.4309,20082
12.4366,20833
12.4424,21421
12.4481,21666
12.4538,21921
12.4595,21561
12.4653,20425
12.471,19885
12.4767,21281
12.4824,21642
12.4881,21900
12.4939,20832
12.4996,21670
12.5053,21655
12.511,21976
12.5168,22532
12.5225,23234
12.5282,22089
12.5339,22642
12.5396,24186
12.5454,23776
12.5511,24296
12.5568,25706
12.5625,28108
12.5683,29191
12.574,29403
12.5797,29369
12.5854,30375
12.5911,31724
12.5969,30167
12.6026,32031
12.6083,29951
12.614,31321
12.6197,32417
12.6255,32048
12.6312,31408
12.6369,29629
12.6426,29818
12.6484,29753
12.6541,26905
12.6598,26711
12.6655,27700
12.6712,25792
12.677,29163
12.6827,27165
12.6884,27518
12.6941,27871
12.6999,25850
12.7056,26773
12.7113,26212
12.717,27162
12.7227,27036
12.7285,24869
12.7342,23957
12.7399,25692
12.7456,25323
12.7514,24302
12.7571,24647
12.7628,24857
12.7685,25398
12.7742,24723
12.78,25373
12.7857,25930
12.7914,24976
12.7971,25344
12.8029,24972
12.8086,25046
12.8143,24082
12.82,24006
12.8257,22165
12.8315,23353
12.8372,24218
12.8429,24994
12.8486,22273
12.8543,23223
12.8601,21257
12.8658,21323
12.8715,21104
12.8772,22591
12.883,21067
12.8887,22410
12.8944,22024
12.9001,24190
12.9058,23647
12.9116,23199
12.9173,22521
12.923,21642
12.9287,21163
12.9345,21577
12.9402,22014
12.9459,20353
12.9516,22064
12.9573,20734
12.9631,20769
12.9688,20654
12.9745,18816
12.9802,20252
12.986,21969
12.9917,19889
12.9974,20716
13.0031,19810
13.0088,21030
13.0146,22004
13.0203,20410
13.026,20028
13.0317,20488
13.0375,19753
13.0432,20746
13.0489,19403
13.0546,20003
13.0603,21063
13.0661,19777
13.0718,20900
13.0775,19765
13.0832,20041
13.089,20504
13.0947,20116
13.1004,20375
13.1061,21104
13.1118,19801
13.1176,20895
13.1233,20114
13.129,21576
13.1347,19110
13.1404,18320
13.1462,20148
13.1519,19671
13.1576,19007
13.1633,20770
13.1691,20527
13.1748,19070
13.1805,20151
13.1862,19145
13.1919,20234
13.1977,20166
13.2034,21170
13.2091,19452
13.2148,19850
13.2206,19091
13.2263,19329
13.232,19597
13.2377,20124
13.2434,20271
13.2492,20663
13.2549,20977
13.2606,21293
13.2663,20222
13.2721,20949
13.2778,20517
13.2835,18851
13.2892,18536
13.2949,19962
13.3007,19806
13.3064,20978
13.3121,21046
13.3178,21491
13.3236,20140
13.3293,20997
13.335,20405
13.3407,20348
13.3464,18687
13.3522,19372
13.3579,18777
13.3636,19934
13.3693,20131
13.375,19848
13.3808,18433
13.3865,20890
13.3922,19937
13.3979,19971
13.4037,20805
13.4094,19578
13.4151,20683
13.4208,20216
13.4265,20512
13.4323,20227
13.438,19157
13.4437,19643
13.4494,17870
13.4552,18047
13.4609,17705
13.4666,19098
13.4723,19414
13.478,18678
13.4838,18521
13.4895,18856
13.4952,18582
13.5009,18819
13.5067,18788
13.5124,19628
13.5181,17806
13.5238,18779
13.5295,18841
13.5353,19466
13.541,20257
13.5467,19787
13.5524,18389
13.5582,19222
13.5639,19207
13.5696,19570
13.5753,19105
13.581,19618
13.5868,19058
13.5925,19623
13.5982,19669
13.6039,19557
13.6096,21014
13.6154,19130
13.6211,19598
13.6268,18894
13.6325,19073
13.6383,18690
13.644,21844
13.6497,19572
13.6554,20230
13.6611,20955
13.6669,20390
13.6726,20474
13.6783,18685
13.684,20675
13.6898,20163
13.6955,20070
13.7012,21173
13.7069,20588
13.7126,19163
13.7184,21218
13.7241,20657
13.7298,19776
13.7355,21033
13.7413,20661
13.747,21082
13.7527,20459
13.7584,21120
13.7641,19453
13.7699,19334
13.7756,20197
13.7813,19613
13.787,19663
13.7928,18322
13.7985,21153
13.8042,21233
13.8099,22219
13.8156,21465
13.8214,19516
13.8271,21086
13.8328,19987
13.8385,21366
13.8443,21695
13.85,21568
13.8557,21793
13.8614,22107
13.8671,20461
13.8729,22839
13.8786,22606
13.8843,21107
13.89,21466
13.8957,20699
13.9015,19607
13.9072,20766
13.9129,22339
13.9186,22659
13.9244,21824
13.9301,21826
13.9358,21480
13.9415,21200
13.9472,21840
13.953,21630
13.9587,21587
13.9644,22559
13.9701,24695
13.9759,22834
13.9816,23269
13.9873,22967
13.993,21914
13.9987,20354
14.0045,22035
14.0102,22663
14.0159,20394
14.0216,22575
14.0274,21203
14.0331,21379
14.0388,19794
14.0445,22109
14.0502,20616
14.056,20948
14.0617,21889
14.0674,21293
14.0731,21314
14.0789,20062
14.0846,20991
14.0903,20843
14.096,20737
14.1017,21459
14.1075,22561
14.1132,20269
14.1189,22194
14.1246,21064
14.1303,20104
14.1361,21684
14.1418,22381
14.1475,20605
14.1532,21523
14.159,21308
14.1647,21286
14.1704,19964
14.1761,21055
14.1818,20702
14.1876,22439
14.1933,21886
14.199,21902
14.2047,21828
14.2105,22505
14.2162,21485
14.2219,24491
14.2276,22854
14.2333,21935
14.2391,22595
14.2448,22988
14.2505,23141
14.2562,25092
14.262,23149
14.2677,23662
14.2734,23134
14.2791,23160
14.2848,22473
14.2906,22774
14.2963,22956
14.302,23880
14.3077,23736
14.3135,23867
14.3192,23057
14.3249,23493
14.3306,25022
14.3363,24794
14.3421,24371
14.3478,24674
14.3535,24087
14.3592,23615
14.3649,24085
14.3707,25776
14.3764,25075
14.3821,23633
14.3878,25766
14.3936,25477
14.3993,24923
14.405,25382
14.4107,24782
14.4164,26129
14.4222,24685
14.4279,24173
14.4336,26165
14.4393,24237
14.4451,27103
14.4508,26949
14.4565,26760
14.4622,26192
14.4679,27328
14.4737,23836
14.4794,25099
14.4851,24978
14.4908,26280
14.4966,25317
14.5023,24106
14.508,26575
14.5137,25737
14.5194,25019
14.5252,26497
14.5309,28308
14.5366,27868
14.5423,27995
14.5481,27898
14.5538,27369
14.5595,26705
14.5652,29043
14.5709,25320
14.5767,26808
14.5824,27188
14.5881,27222
14.5938,25891
14.5996,27287
14.6053,27440
14.611,27852
14.6167,28140
14.6224,26065
14.6282,28697
14.6339,27169
14.6396,27348
14.6453,27916
14.651,26376
14.6568,28590
14.6625,27582
14.6682,29120
14.6739,29341
14.6797,29076
14.6854,26915
14.6911,30343
14.6968,29295
14.7025,29621
14.7083,29851
14.714,29379
14.7197,31625
14.7254,29182
14.7312,30437
14.7369,30103
14.7426,31241
14.7483,31507
14.754,30490
14.7598,30112
14.7655,29553
14.7712,30888
14.7769,31497
14.7827,29718
14.7884,31401
14.7941,30222
14.7998,33008
14.8055,32129
14.8113,31469
14.817,32516
14.8227,32597
14.8284,32793
14.8342,32547
14.8399,33321
14.8456,33267
14.8513,34267
14.857,34936
14.8628,33126
14.8685,33539
14.8742,34723
14.8799,33566
14.8856,35763
14.8914,35054
14.8971,34333
14.9028,33012
14.9085,32652
14.9143,34877
14.92,33652
14.9257,33508
14.9314,33522
14.9371,37275
14.9429,33545
14.9486,36453
14.9543,35045
14.96,38931
14.9658,39061
14.9715,39017
14.9772,36190
14.9829,38115
14.9886,34888
14.9944,36677
15.0001,37178
15.0058,35524
15.0115,34669
15.0173,35802
15.023,38198
15.0287,37791
15.0344,37204
15.0401,38467
15.0459,40144
15.0516,39419
15.0573,41100
15.063,41201
15.0688,38953
15.0745,38174
15.0802,38747
15.0859,37935
15.0916,39869
15.0974,40181
15.1031,39407
15.1088,41897
15.1145,40265
15.1203,40425
15.126,38958
15.1317,39997
15.1374,42271
15.1431,40176
15.1489,41902
15.1546,40685
15.1603,39957
15.166,41221
15.1717,44186
15.1775,42585
15.1832,42025
15.1889,43649
15.1946,42089
15.2004,41201
15.2061,43589
15.2118,41856
15.2175,41306
15.2232,40230
15.229,41295
15.2347,40380
15.2404,43462
15.2461,43832
15.2519,43425
15.2576,43110
15.2633,42706
15.269,41656
15.2747,44380
15.2805,44434
15.2862,44603
15.2919,44565
15.2976,42189
15.3034,43296
15.3091,45451
15.3148,44806
15.3205,44450
15.3262,46703
15.332,46604
15.3377,47597
15.3434,46735
15.3491,47558
15.3549,46144
15.3606,46407
15.3663,46473
15.372,47898
15.3777,48266
15.3835,47974
15.3892,46709
15.3949,45101
15.4006,48421
15.4063,49129
15.4121,48596
15.4178,47466
15.4235,50045
15.4292,48921
15.435,49273
15.4407,50787
15.4464,50830
15.4521,50800
15.4578,52312
15.4636,52847
15.4693,54173
15.475,51681
15.4807,49051
15.4865,51762
15.4922,52389
15.4979,53464
15.5036,53819
15.5093,52752
15.5151,54773
15.5208,52937
15.5265,54561
15.5322,53671
15.538,57165
15.5437,54052
15.5494,55951
15.5551,55356
15.5608,56701
15.5666,54916
15.5723,55248
15.578,57983
15.5837,57454
15.5895,56657
15.5952,57681
15.6009,58502
15.6066,59198
15.6123,57597
15.6181,57907
15.6238,58434
15.6295,60057
15.6352,61879
15.6409,59913
15.6467,60246
15.6524,59387
15.6581,60970
15.6638,56330
15.6696,61545
15.6753,63584
15.681,60975
15.6867,59791
15.6924,63789
15.6982,61759
15.7039,63256
15.7096,63255
15.7153,62480
15.7211,62524
15.7268,63666
15.7325,63456
15.7382,63690
15.7439,63407
15.7497,64737
15.7554,63137
15.7611,62596
15.7668,65005
15.7726,64655
15.7783,65376
15.784,68444
15.7897,64930
15.7954,64603
15.8012,67057
15.8069,66533
15.8126,68211
15.8183,70315
15.8241,66509
15.8298,71129
15.8355,71657
15.8412,68430
15.8469,71586
15.8527,71211
15.8584,70426
15.8641,69819
15.8698,71528
15.8756,72728
15.8813,72072
15.887,75803
15.8927,76755
15.8984,76261
15.9042,73686
15.9099,76526
15.9156,74475
15.9213,73898
15.927,77569
15.9328,74198
15.9385,73085
15.9442,76057
15.9499,77175
15.9557,75067
15.9614,75108
15.9671,75505
15.9728,73614
15.9785,74863
15.9843,76429
15.99,75864
15.9957,76104
16.0014,77638
16.0071,79584
16.0129,77611
16.0186,77325
16.0243,75802
16.03,79292
16.0358,78488
16.0415,80972
16.0472,81573
16.0529,80210
16.0587,81142
16.0644,80756
16.0701,84413
16.0758,84055
16.0815,82872
16.0873,82490
16.093,83231
16.0987,84568
16.1044,87274
16.1102,81437
16.1159,87062
16.1216,82882
16.1273,88095
16.133,88143
16.1388,89391
16.1445,87083
16.1502,87211
16.1559,88240
16.1616,90199
16.1674,87300
16.1731,87973
16.1788,89876
16.1845,86964
16.1902,88666
16.196,90448
16.2017,91412
16.2074,88439
16.2131,92411
16.2189,90618
16.2246,90193
16.2303,92586
16.236,92233
16.2418,93280
16.2475,93549
16.2532,91004
16.2589,96640
16.2646,93489
16.2704,93716
16.2761,93235
16.2818,95440
16.2875,94204
16.2933,99570
16.299,98572
16.3047,96536
16.3104,98732
16.3161,97815
16.3219,99840
16.3276,100775
16.3333,103375
16.339,103321
16.3448,101305
16.3505,104885
16.3562,103052
16.3619,102699
16.3676,104268
16.3733,100694
16.3791,107699
16.3848,105550
16.3905,105969
16.3962,102873
16.402,107340
16.4077,108718
16.4134,107721
16.4191,105438
16.4248,108222
16.4306,108795
16.4363,109369
16.442,108500
16.4477,108056
16.4535,108275
16.4592,108597
16.4649,109676
16.4706,110930
16.4764,111168
16.4821,110398
16.4878,112823
16.4935,113249
16.4992,111233
16.505,112763
16.5107,114890
16.5164,113620
16.5221,113128
16.5279,112538
16.5336,115304
16.5393,115142
16.545,116442
16.5507,115956
16.5565,113411
16.5622,115638
16.5679,114359
16.5736,118393
16.5794,117899
16.5851,115382
16.5908,116818
16.5965,118902
16.6022,118978
16.6079,119557
16.6137,121126
16.6194,120045
16.6251,123603
16.6308,121414
16.6366,121054
16.6423,124293
16.648,121792
16.6537,124218
16.6595,124772
16.6652,124243
16.6709,126557
16.6766,127325
16.6823,126251
16.6881,128451
16.6938,130998
16.6995,125953
16.7052,128119
16.711,130668
16.7167,133033
16.7224,134120
16.7281,126148
16.7338,130775
16.7396,134123
16.7453,135602
16.751,137322
16.7567,137032
16.7625,140292
16.7682,142958
16.7739,138212
16.7796,138057
16.7853,138092
16.791,137956
16.7968,136861
16.8025,139175
16.8082,139235
16.8139,139741
16.8197,139066
16.8254,143398
16.8311,142870
16.8368,146008
16.8425,139245
16.8483,147216
16.854,144827
16.8597,146167
16.8654,149099
16.8712,151116
16.8769,149423
16.8826,154068
16.8883,151938
16.8941,151668
16.8998,149279
16.9055,153055
16.9112,152444
16.9169,154293
16.9227,154861
16.9284,152768
16.9341,152512
16.9398,154819
16.9456,154904
16.9513,158178
16.957,156430
16.9627,157446
16.9684,155916
16.9742,159619
16.9799,163847
16.9856,161741
16.9913,164135
16.9971,166303
17.0028,160630
17.0085,162230
17.0142,163980
17.0199,158685
17.0256,166392
17.0314,162700
17.0371,163342
17.0428,165716
17.0485,163250
17.0543,165030
17.06,165178
17.0657,162185
17.0714,162955
17.0772,166330
17.0829,163175
17.0886,168523
17.0943,171403
17.1001,169241
17.1058,165293
17.1115,171345
17.1172,171342
17.1229,174508
17.1287,168774
17.1344,171739
17.1401,172166
17.1458,170800
17.1515,168295
17.1573,175087
17.163,172288
17.1687,172645
17.1744,170729
17.1802,177332
17.1859,175788
17.1916,177612
17.1973,171408
17.203,173915
17.2088,173139
17.2145,174865
17.2202,180587
17.2259,177192
17.2316,177311
17.2374,177035
17.2431,177596
17.2488,174634
17.2545,178441
17.2603,180612
17.266,181269
17.2717,183517
17.2774,178884
17.2831,177541
17.2889,180644
17.2946,182089
17.3003,188738
17.306,181820
17.3118,182043
17.3175,183858
17.3232,186804
17.3289,182702
17.3347,179635
17.3404,180441
17.3461,183870
17.3518,183533
17.3575,183995
17.3633,182756
17.369,189262
17.3747,186921
17.3804,183635
17.3862,182940
17.3919,188035
17.3976,186154
17.4033,187451
17.409,189051
17.4148,189050
17.4205,187581
17.4262,187627
17.4319,190211
17.4376,190774
17.4434,194593
17.4491,191279
17.4548,190732
17.4605,192130
17.4662,192654
17.472,188234
17.4777,188346
17.4834,193470
17.4891,193426
17.4949,190664
17.5006,190538
17.5063,189887
17.512,189359
17.5177,192000
17.5235,192725
17.5292,191628
17.5349,189996
17.5406,192309
17.5464,194697
17.5521,195157
17.5578,193843
17.5635,196686
17.5693,191995
17.575,193016
17.5807,190142
17.5864,197667
17.5921,190609
17.5979,193818
17.6036,195795
17.6093,197413
17.615,195185
17.6208,200495
17.6265,198841
17.6322,198992
17.6379,196223
17.6436,195055
17.6494,193823
17.6551,193496
17.6608,194426
17.6665,192067
17.6722,190767
17.678,192431
17.6837,193546
17.6894,198953
17.6951,195944
17.7008,192722
17.7066,197255
17.7123,194619
17.718,195319
17.7237,199101
17.7295,197578
17.7352,194254
17.7409,194782
17.7466,196783
17.7524,194881
17.7581,197445
17.7638,199033
17.7695,199607
17.7752,199828
17.781,197458
17.7867,193691
17.7924,194288
17.7981,190877
17.8039,198557
17.8096,201751
17.8153,194330
17.821,194776
17.8267,193169
17.8325,198464
17.8382,197203
17.8439,195204
17.8496,196424
17.8554,195840
17.8611,196396
17.8668,194015
17.8725,199430
17.8782,198981
17.884,201944
17.8897,195590
17.8954,196255
17.9011,196485
17.9068,199257
17.9126,194188
17.9183,194022
17.924,197413
17.9297,200706
17.9354,198911
17.9412,200845
17.9469,199885
17.9526,198402
17.9583,199955
17.9641,200675
17.9698,199108
17.9755,201127
17.9812,200828
17.987,202302
17.9927,203255
