C:\MSDCHEM\1\DATA\SERINA\20180424_NLTAB_FRESH\SLR2_12_NltAB_BPER_2.d 24 Apr 18  12:56 pm
Start of data points
4.0925,17935
4.09823,17916
4.10395,16313
4.10967,16327
4.1154,17027
4.12112,16698
4.12683,16336
4.13257,14999
4.13828,15260
4.144,14881
4.14972,14207
4.15545,14670
4.16117,15627
4.16688,14850
4.17262,14398
4.17833,13619
4.18405,13883
4.18978,12854
4.1955,12870
4.20122,12432
4.20695,11401
4.21267,11438
4.21838,11996
4.22412,11763
4.22983,11234
4.23555,11503
4.24128,10339
4.247,9882
4.25272,10828
4.25845,10325
4.26417,9864
4.26988,10234
4.2756,9595
4.28133,9260
4.28705,9053
4.29277,8957
4.2985,9259
4.30422,9216
4.30993,8900
4.31567,9059
4.32138,8283
4.3271,8125
4.33283,8491
4.33855,6601
4.34427,7795
4.35,7933
4.35572,8084
4.36143,7087
4.36717,7678
4.37288,7603
4.3786,7755
4.38433,7578
4.39005,6623
4.39577,6069
4.40148,6353
4.40722,5222
4.41293,6235
4.41865,6419
4.42438,5653
4.4301,6379
4.43582,6078
4.44155,6757
4.44727,5549
4.45298,6099
4.45872,6244
4.46443,5764
4.47015,5978
4.47588,6275
4.4816,6094
4.48732,5220
4.49305,6067
4.49877,5497
4.50448,6044
4.51022,5315
4.51593,4880
4.52165,5647
4.52737,5210
4.5331,5306
4.53882,4924
4.54453,5190
4.55027,4953
4.55598,5203
4.5617,4131
4.56743,4585
4.57315,5153
4.57887,4284
4.5846,4289
4.59032,4358
4.59603,4607
4.60177,4870
4.60748,4738
4.6132,4381
4.61893,4564
4.62465,4393
4.63037,3990
4.6361,4579
4.64182,4432
4.64753,4148
4.65325,4745
4.65898,4787
4.6647,4641
4.67042,4399
4.67615,4610
4.68187,4013
4.68758,3735
4.69332,4250
4.69903,4341
4.70475,4447
4.71048,4589
4.7162,3844
4.72192,4331
4.72765,4109
4.73337,3972
4.73908,4567
4.74482,4132
4.75053,3809
4.75625,3866
4.76198,3749
4.7677,4151
4.77342,3503
4.77913,4357
4.78487,4243
4.79058,4245
4.7963,4009
4.80203,4034
4.80775,3731
4.81347,3847
4.8192,3434
4.82492,3862
4.83063,3878
4.83637,3517
4.84208,4107
4.8478,3148
4.85353,2616
4.85925,3203
4.86497,4102
4.8707,3545
4.87642,4260
4.88213,4170
4.88787,3377
4.89358,3311
4.8993,3309
4.90502,2707
4.91075,3791
4.91647,3627
4.92218,2796
4.92792,2790
4.93363,3261
4.93935,2803
4.94508,2949
4.9508,2839
4.95652,3290
4.96225,2725
4.96797,3080
4.97368,3362
4.97942,3353
4.98513,2820
4.99085,3140
4.99658,2956
5.0023,3075
5.00802,2857
5.01375,3290
5.01947,2806
5.02518,3010
5.0309,2294
5.03663,3521
5.04235,2670
5.04807,2600
5.0538,3110
5.05952,2985
5.06523,3061
5.07097,2956
5.07668,2339
5.0824,2870
5.08813,2473
5.09385,2733
5.09957,2772
5.1053,2790
5.11102,2837
5.11673,2087
5.12247,2327
5.12818,2499
5.1339,2566
5.13963,2343
5.14535,2225
5.15107,2287
5.15678,1959
5.16252,2427
5.16823,2804
5.17395,1994
5.17968,2894
5.1854,2767
5.19112,2484
5.19685,2563
5.20257,2500
5.20828,2746
5.21402,2494
5.21973,2670
5.22545,2792
5.23118,2575
5.2369,2495
5.24262,2374
5.24835,2432
5.25407,2815
5.25978,2524
5.26552,2335
5.27123,1862
5.27695,2945
5.28267,2575
5.2884,2699
5.29412,3172
5.29983,2687
5.30557,2584
5.31128,3514
5.317,2876
5.32273,3275
5.32845,2719
5.33417,2745
5.3399,2925
5.34562,2514
5.35133,2713
5.35707,3259
5.36278,3259
5.3685,2524
5.37423,2962
5.37995,3255
5.38567,2782
5.3914,2831
5.39712,3001
5.40283,2336
5.40855,2611
5.41428,1973
5.42,2199
5.42572,2410
5.43145,2410
5.43717,2423
5.44288,2514
5.44862,2103
5.45433,1978
5.46005,2126
5.46578,2989
5.4715,2181
5.47722,2362
5.48295,2350
5.48867,2486
5.49438,2184
5.50012,2013
5.50583,2191
5.51155,2131
5.51728,2255
5.523,2235
5.52872,2322
5.53443,1671
5.54017,1902
5.54588,1988
5.5516,2313
5.55733,2103
5.56305,1882
5.56877,1949
5.5745,1687
5.58022,2021
5.58593,1424
5.59167,1835
5.59738,1815
5.6031,2305
5.60883,1748
5.61455,1665
5.62027,1979
5.626,1617
5.63172,2096
5.63743,2241
5.64317,1827
5.64888,2146
5.6546,2476
5.66032,2161
5.66605,2771
5.67177,1535
5.67748,1917
5.68322,2130
5.68893,1597
5.69465,1935
5.70038,1968
5.7061,2049
5.71182,2152
5.71755,2425
5.72327,1648
5.72898,1850
5.73472,2072
5.74043,1963
5.74615,1957
5.75188,1851
5.7576,1727
5.76332,2017
5.76905,1531
5.77477,2090
5.78048,1306
5.7862,1481
5.79193,1966
5.79765,1870
5.80337,1854
5.8091,1824
5.81482,1714
5.82053,1224
5.82627,1896
5.83198,2039
5.8377,1632
5.84343,1565
5.84915,1591
5.85487,1575
5.8606,1841
5.86632,1794
5.87203,1432
5.87777,1761
5.88348,1181
5.8892,1497
5.89493,1507
5.90065,1635
5.90637,1724
5.91208,2271
5.91782,2023
5.92353,1800
5.92925,2230
5.93498,1528
5.9407,2266
5.94642,1805
5.95215,2073
5.95787,2072
5.96358,1909
5.96932,1969
5.97503,1998
5.98075,1891
5.98648,1994
5.9922,2003
5.99792,2009
6.00365,1759
6.00937,1402
6.01508,1684
6.02082,1892
6.02653,1820
6.03225,1687
6.03797,1332
6.0437,2120
6.04942,2257
6.05513,1601
6.06087,1643
6.06658,1568
6.0723,1795
6.07803,1263
6.08375,1665
6.08947,1988
6.0952,1768
6.10092,2391
6.10663,1572
6.11237,1617
6.11808,1720
6.1238,1586
6.12953,1657
6.13525,1889
6.14097,1550
6.1467,1544
6.15242,1558
6.15813,1437
6.16385,1630
6.16958,1327
6.1753,1299
6.18102,1673
6.18675,1522
6.19247,1406
6.19818,1067
6.20392,1234
6.20963,1684
6.21535,1254
6.22108,1319
6.2268,1567
6.23252,1446
6.23825,1454
6.24397,1529
6.24968,928
6.25542,1262
6.26113,1320
6.26685,1367
6.27258,1124
6.2783,1680
6.28402,1558
6.28973,1558
6.29547,1254
6.30118,1361
6.3069,1036
6.31263,960
6.31835,1588
6.32407,1131
6.3298,1494
6.33552,1499
6.34123,1577
6.34697,1146
6.35268,1655
6.3584,1488
6.36413,1169
6.36985,1246
6.37557,1791
6.3813,1280
6.38702,1920
6.39273,1117
6.39847,1554
6.40418,1211
6.4099,1147
6.41562,1441
6.42135,990
6.42707,1306
6.43278,1663
6.43852,1498
6.44423,1446
6.44995,1448
6.45568,1519
6.4614,1102
6.46712,1104
6.47285,1183
6.47857,1065
6.48428,1467
6.49002,1049
6.49573,1506
6.50145,1085
6.50718,1206
6.5129,1468
6.51862,1454
6.52435,956
6.53007,1433
6.53578,1209
6.5415,956
6.54723,1611
6.55295,1605
6.55867,1685
6.5644,1124
6.57012,1605
6.57583,1273
6.58157,1614
6.58728,1206
6.593,1081
6.59873,1333
6.60445,1949
6.61017,1539
6.6159,1436
6.62162,1248
6.62733,1299
6.63307,1250
6.63878,1274
6.6445,1119
6.65023,910
6.65595,1354
6.66167,1232
6.66738,1037
6.67312,1152
6.67883,1262
6.68455,1689
6.69028,1261
6.696,1373
6.70172,1338
6.70745,1013
6.71317,841
6.71888,1352
6.72462,1202
6.73033,1630
6.73605,1395
6.74178,1258
6.7475,2006
6.75322,3177
6.75895,3432
6.76467,4158
6.77038,5226
6.77612,5278
6.78183,5061
6.78755,3253
6.79327,3244
6.799,2443
6.80472,2640
6.81043,2475
6.81617,2057
6.82188,2069
6.8276,1659
6.83333,1952
6.83905,2169
6.84477,1593
6.8505,1420
6.85622,1613
6.86193,1509
6.86767,1108
6.87338,1502
6.8791,1218
6.88483,1167
6.89055,1466
6.89627,1366
6.902,990
6.90772,1241
6.91343,1080
6.91915,1481
6.92488,1164
6.9306,1280
6.93632,1119
6.94205,1270
6.94777,1221
6.95348,1268
6.95922,1069
6.96493,1178
6.97065,909
6.97638,1083
6.9821,1529
6.98782,1154
6.99355,1146
6.99927,1310
7.00498,1403
7.01072,1091
7.01643,1155
7.02215,1129
7.02788,1051
7.0336,1261
7.03932,960
7.04503,1485
7.05077,1328
7.05648,1132
7.0622,1217
7.06793,988
7.07365,955
7.07937,1001
7.0851,1129
7.09082,1081
7.09653,1138
7.10227,995
7.10798,1123
7.1137,1341
7.11943,941
7.12515,1114
7.13087,863
7.1366,1437
7.14232,839
7.14803,864
7.15377,956
7.15948,1005
7.1652,1016
7.17092,797
7.17665,718
7.18237,946
7.18808,992
7.19382,1018
7.19953,1056
7.20525,1224
7.21098,850
7.2167,995
7.22242,883
7.22815,782
7.23387,1123
7.23958,1162
7.24532,855
7.25103,1039
7.25675,856
7.26248,767
7.2682,905
7.27392,1160
7.27965,1363
7.28537,767
7.29108,776
7.2968,1099
7.30253,1125
7.30825,1330
7.31397,1105
7.3197,830
7.32542,830
7.33113,977
7.33687,755
7.34258,1175
7.3483,882
7.35403,793
7.35975,1318
7.36547,986
7.3712,889
7.37692,939
7.38263,1005
7.38837,739
7.39408,883
7.3998,1053
7.40553,990
7.41125,1338
7.41697,938
7.42268,808
7.42842,809
7.43413,1309
7.43985,812
7.44558,975
7.4513,872
7.45702,1017
7.46275,995
7.46847,926
7.47418,952
7.47992,1008
7.48563,844
7.49135,785
7.49708,711
7.5028,814
7.50852,977
7.51425,1271
7.51997,816
7.52568,941
7.53142,573
7.53713,1080
7.54285,1058
7.54857,701
7.5543,1000
7.56002,1014
7.56573,1045
7.57147,1023
7.57718,1164
7.5829,1038
7.58863,942
7.59435,896
7.60007,1006
7.6058,1027
7.61152,1071
7.61723,957
7.62297,817
7.62868,1063
7.6344,848
7.64013,768
7.64585,1240
7.65157,1171
7.6573,732
7.66302,980
7.66873,859
7.67447,863
7.68018,687
7.6859,973
7.69162,826
7.69735,995
7.70307,987
7.70878,984
7.71452,890
7.72023,814
7.72595,750
7.73168,850
7.7374,1015
7.74312,833
7.74885,1029
7.75457,1100
7.76028,1023
7.76602,677
7.77173,751
7.77745,851
7.78318,1175
7.7889,1100
7.79462,946
7.80035,1077
7.80607,775
7.81178,1274
7.8175,1367
7.82323,1063
7.82895,1156
7.83467,943
7.8404,681
7.84612,1063
7.85183,764
7.85757,824
7.86328,1262
7.869,1055
7.87473,1099
7.88045,762
7.88617,960
7.8919,589
7.89762,1299
7.90333,977
7.90907,891
7.91478,760
7.9205,959
7.92623,693
7.93195,1000
7.93767,1153
7.94338,641
7.94912,973
7.95483,854
7.96055,905
7.96628,916
7.972,530
7.97772,905
7.98345,907
7.98917,785
7.99488,610
8.00062,748
8.00633,899
8.01205,1125
8.01778,769
8.0235,939
8.02922,1088
8.03495,1056
8.04067,741
8.04638,613
8.05212,694
8.05783,700
8.06355,1006
8.06927,634
8.075,932
8.08072,1200
8.08643,973
8.09217,840
8.09788,736
8.1036,790
8.10933,897
8.11505,906
8.12077,971
8.1265,1058
8.13222,784
8.13793,673
8.14367,797
8.14938,827
8.1551,1161
8.16083,761
8.16655,661
8.17227,829
8.178,704
8.18372,793
8.18943,753
8.19515,764
8.20088,984
8.2066,931
8.21232,860
8.21805,975
8.22377,418
8.22948,1115
8.23522,1092
8.24093,693
8.24665,791
8.25238,1082
8.2581,475
8.26382,937
8.26955,701
8.27527,1346
8.28098,650
8.28672,785
8.29243,614
8.29815,860
8.30388,598
8.3096,967
8.31532,724
8.32103,1077
8.32677,689
8.33248,1198
8.3382,714
8.34393,617
8.34965,741
8.35537,1302
8.3611,1565
8.36682,1940
8.37253,1617
8.37827,1861
8.38398,981
8.3897,1478
8.39543,842
8.40115,843
8.40687,589
8.4126,930
8.41832,944
8.42403,778
8.42977,663
8.43548,820
8.4412,1156
8.44692,850
8.45265,803
8.45837,872
8.46408,644
8.46982,827
8.47553,724
8.48125,768
8.48698,873
8.4927,728
8.49842,800
8.50415,847
8.50987,886
8.51558,1031
8.52132,1149
8.52703,669
8.53275,873
8.53848,635
8.5442,779
8.54992,973
8.55565,821
8.56137,931
8.56708,928
8.5728,707
8.57853,701
8.58425,620
8.58997,724
8.5957,644
8.60142,767
8.60713,605
8.61287,686
8.61858,1017
8.6243,931
8.63003,831
8.63575,834
8.64147,717
8.6472,824
8.65292,968
8.65863,666
8.66437,839
8.67008,1369
8.6758,1287
8.68153,1188
8.68725,808
8.69297,679
8.69868,575
8.70442,617
8.71013,531
8.71585,746
8.72158,815
8.7273,626
8.73302,723
8.73875,1164
8.74447,998
8.75018,1442
8.75592,1533
8.76163,652
8.76735,1177
8.77308,901
8.7788,789
8.78452,867
8.79025,913
8.79597,649
8.80168,1081
8.80742,449
8.81313,505
8.81885,780
8.82457,442
8.8303,684
8.83602,797
8.84173,635
8.84747,743
8.85318,642
8.8589,746
8.86463,1124
8.87035,676
8.87607,852
8.8818,783
8.88752,616
8.89323,975
8.89897,1069
8.90468,904
8.9104,802
8.91613,521
8.92185,1029
8.92757,1938
8.9333,2223
8.93902,1477
8.94473,1769
8.95045,1309
8.95618,1150
8.9619,768
8.96762,940
8.97335,999
8.97907,233
8.98478,800
8.99052,673
8.99623,742
9.00195,557
9.00768,686
9.0134,478
9.01912,409
9.02485,1207
9.03057,796
9.03628,1172
9.04202,806
9.04773,1355
9.05345,1317
9.05918,2497
9.0649,6036
9.07062,15010
9.07633,23418
9.08207,33393
9.08778,33292
9.0935,24777
9.09923,16282
9.10495,10191
9.11067,5576
9.1164,3259
9.12212,2455
9.12783,1209
9.13357,1381
9.13928,900
9.145,1021
9.15073,926
9.15645,1038
9.16217,798
9.1679,789
9.17362,1060
9.17933,1410
9.18507,949
9.19078,965
9.1965,978
9.20222,820
9.20795,500
9.21367,285
9.21938,522
9.22512,914
9.23083,649
9.23655,638
9.24228,771
9.248,679
9.25372,700
9.25945,781
9.26517,579
9.27088,692
9.27662,591
9.28233,783
9.28805,403
9.29378,490
9.2995,751
9.30522,779
9.31095,661
9.31667,530
9.32238,732
9.3281,779
9.33383,898
9.33955,714
9.34527,934
9.351,581
9.35672,3703
9.36243,15187
9.36817,38495
9.37388,66015
9.3796,84852
9.38533,74493
9.39105,55139
9.39677,37546
9.4025,24062
9.40822,19338
9.41393,16781
9.41967,13009
9.42538,10609
9.4311,9488
9.43683,7742
9.44255,6491
9.44827,6402
9.45398,4598
9.45972,4739
9.46543,4314
9.47115,4235
9.47688,3499
9.4826,3955
9.48832,3209
9.49405,2506
9.49977,2509
9.50548,2570
9.51122,2199
9.51693,2125
9.52265,2271
9.52838,1884
9.5341,2161
9.53982,1589
9.54555,1722
9.55127,1755
9.55698,1987
9.56272,1318
9.56843,1987
9.57415,2011
9.57987,1621
9.5856,1680
9.59132,1572
9.59703,1461
9.60277,1938
9.60848,1475
9.6142,1606
9.61993,865
9.62565,1117
9.63137,807
9.6371,1119
9.64282,704
9.64853,1181
9.65427,1053
9.65998,935
9.6657,851
9.67143,1824
9.67715,1616
9.68287,681
9.6886,1021
9.69432,778
9.70003,733
9.70575,578
9.71148,996
9.7172,826
9.72292,795
9.72865,776
9.73437,1206
9.74008,1271
9.74582,940
9.75153,1152
9.75725,899
9.76298,1090
9.7687,473
9.77442,743
9.78015,1297
9.78587,491
9.79158,558
9.79732,930
9.80303,582
9.80875,698
9.81448,513
9.8202,411
9.82592,730
9.83163,725
9.83737,766
9.84308,738
9.8488,991
9.85453,626
9.86025,1085
9.86597,1118
9.8717,1100
9.87742,809
9.88313,1355
9.88887,1303
9.89458,1143
9.9003,1042
9.90603,1211
9.91175,1291
9.91747,881
9.9232,1400
9.92892,1249
9.93463,791
9.94037,1534
9.94608,830
9.9518,1500
9.95752,759
9.96325,1197
9.96897,761
9.97468,1029
9.98042,616
9.98613,406
9.99185,548
9.99758,817
10.0033,898
10.009,646
10.0148,1186
10.0205,845
10.0262,870
10.0319,776
10.0376,748
10.0434,1054
10.0491,391
10.0548,705
10.0605,608
10.0663,409
10.072,570
10.0777,791
10.0834,689
10.0891,458
10.0949,877
10.1006,752
10.1063,727
10.112,727
10.1177,879
10.1235,597
10.1292,914
10.1349,509
10.1406,291
10.1464,182
10.1521,568
10.1578,480
10.1635,321
10.1692,468
10.175,672
10.1807,840
10.1864,4442
10.1921,11041
10.1979,16966
10.2036,17825
10.2093,14871
10.215,10642
10.2207,8541
10.2265,7360
10.2322,5267
10.2379,4961
10.2436,4290
10.2494,4461
10.2551,5024
10.2608,7079
10.2665,9420
10.2722,9876
10.278,9771
10.2837,8515
10.2894,5387
10.2951,4240
10.3009,3111
10.3066,2937
10.3123,1872
10.318,1672
10.3237,2015
10.3295,1476
10.3352,1218
10.3409,853
10.3466,1551
10.3523,1347
10.3581,1039
10.3638,910
10.3695,1378
10.3752,1371
10.381,1070
10.3867,1195
10.3924,1146
10.3981,924
10.4038,1576
10.4096,1342
10.4153,935
10.421,993
10.4267,1426
10.4325,1297
10.4382,1084
10.4439,705
10.4496,1660
10.4553,1738
10.4611,1767
10.4668,1167
10.4725,1516
10.4782,1543
10.484,1359
10.4897,1556
10.4954,893
10.5011,781
10.5068,606
10.5126,1023
10.5183,1028
10.524,866
10.5297,664
10.5355,866
10.5412,1393
10.5469,730
10.5526,545
10.5583,520
10.5641,1295
10.5698,1970
10.5755,2249
10.5812,2348
10.5869,1921
10.5927,1832
10.5984,1447
10.6041,1034
10.6098,1188
10.6156,985
10.6213,1294
10.627,807
10.6327,990
10.6384,995
10.6442,1027
10.6499,2330
10.6556,2509
10.6613,2176
10.6671,3088
10.6728,1984
10.6785,1886
10.6842,1303
10.6899,852
10.6957,1355
10.7014,637
10.7071,993
10.7128,473
10.7186,607
10.7243,563
10.73,480
10.7357,271
10.7414,1112
10.7472,688
10.7529,609
10.7586,632
10.7643,808
10.7701,336
10.7758,574
10.7815,756
10.7872,439
10.7929,427
10.7987,527
10.8044,317
10.8101,877
10.8158,932
10.8216,771
10.8273,1063
10.833,1560
10.8387,1301
10.8444,3894
10.8502,7706
10.8559,13134
10.8616,13786
10.8673,11812
10.873,8556
10.8788,6526
10.8845,4245
10.8902,2842
10.8959,1975
10.9017,1686
10.9074,1272
10.9131,1102
10.9188,1304
10.9245,1474
10.9303,750
10.936,988
10.9417,1192
10.9474,491
10.9532,396
10.9589,956
10.9646,1419
10.9703,1736
10.976,2491
10.9818,1606
10.9875,1211
10.9932,577
10.9989,595
11.0047,375
11.0104,554
11.0161,246
11.0218,450
11.0275,754
11.0333,489
11.039,594
11.0447,513
11.0504,643
11.0562,448
11.0619,325
11.0676,440
11.0733,962
11.079,204
11.0848,920
11.0905,765
11.0962,452
11.1019,676
11.1076,512
11.1134,562
11.1191,2554
11.1248,9570
11.1305,25148
11.1363,47197
11.142,64341
11.1477,64236
11.1534,41544
11.1591,19665
11.1649,7114
11.1706,2088
11.1763,1142
11.182,515
11.1878,723
11.1935,153
11.1992,707
11.2049,467
11.2106,355
11.2164,683
11.2221,622
11.2278,736
11.2335,555
11.2393,682
11.245,162
11.2507,576
11.2564,772
11.2621,758
11.2679,381
11.2736,464
11.2793,701
11.285,579
11.2908,626
11.2965,435
11.3022,273
11.3079,771
11.3136,533
11.3194,589
11.3251,1042
11.3308,462
11.3365,567
11.3422,761
11.348,708
11.3537,732
11.3594,603
11.3651,422
11.3709,467
11.3766,975
11.3823,482
11.388,581
11.3937,829
11.3995,385
11.4052,706
11.4109,1023
11.4166,575
11.4224,510
11.4281,172
11.4338,738
11.4395,998
11.4452,1787
11.451,1797
11.4567,1674
11.4624,1836
11.4681,2053
11.4739,1411
11.4796,852
11.4853,1108
11.491,412
11.4967,717
11.5025,667
11.5082,694
11.5139,332
11.5196,825
11.5254,704
11.5311,538
11.5368,437
11.5425,220
11.5482,751
11.554,778
11.5597,409
11.5654,578
11.5711,388
11.5769,658
11.5826,526
11.5883,532
11.594,621
11.5997,536
11.6055,626
11.6112,458
11.6169,697
11.6226,389
11.6283,502
11.6341,484
11.6398,224
11.6455,698
11.6512,964
11.657,822
11.6627,547
11.6684,824
11.6741,842
11.6798,415
11.6856,294
11.6913,325
11.697,341
11.7027,226
11.7085,613
11.7142,617
11.7199,369
11.7256,185
11.7313,532
11.7371,662
11.7428,580
11.7485,818
11.7542,500
11.76,830
11.7657,706
11.7714,414
11.7771,281
11.7828,213
11.7886,436
11.7943,597
11.8,766
11.8057,564
11.8115,714
11.8172,419
11.8229,573
11.8286,410
11.8343,407
11.8401,694
11.8458,367
11.8515,552
11.8572,672
11.8629,415
11.8687,352
11.8744,392
11.8801,356
11.8858,565
11.8916,192
11.8973,565
11.903,606
11.9087,384
11.9144,214
11.9202,586
11.9259,261
11.9316,706
11.9373,576
11.9431,563
11.9488,634
11.9545,512
11.9602,773
11.9659,509
11.9717,496
11.9774,693
11.9831,842
11.9888,448
11.9946,303
12.0003,0
12.006,208
12.0117,626
12.0174,393
12.0232,593
12.0289,453
12.0346,356
12.0403,772
12.0461,413
12.0518,330
12.0575,424
12.0632,529
12.0689,0
12.0747,549
12.0804,463
12.0861,941
12.0918,853
12.0976,704
12.1033,445
12.109,154
12.1147,672
12.1204,381
12.1262,260
12.1319,815
12.1376,367
12.1433,335
12.149,265
12.1548,709
12.1605,849
12.1662,766
12.1719,157
12.1777,199
12.1834,342
12.1891,431
12.1948,371
12.2005,395
12.2063,460
12.212,466
12.2177,0
12.2234,663
12.2292,466
12.2349,600
12.2406,416
12.2463,426
12.252,191
12.2578,198
12.2635,274
12.2692,720
12.2749,443
12.2807,390
12.2864,608
12.2921,485
12.2978,266
12.3035,158
12.3093,349
12.315,391
12.3207,186
12.3264,623
12.3322,526
12.3379,497
12.3436,579
12.3493,245
12.355,176
12.3608,619
12.3665,565
12.3722,163
12.3779,192
12.3836,395
12.3894,718
12.3951,541
12.4008,406
12.4065,514
12.4123,554
12.418,5707
12.4237,22885
12.4294,51833
12.4351,71894
12.4409,68551
12.4466,48938
12.4523,30394
12.458,19850
12.4638,13090
12.4695,9564
12.4752,6803
12.4809,6173
12.4866,4816
12.4924,4147
12.4981,4256
12.5038,4853
12.5095,2671
12.5153,3673
12.521,3135
12.5267,2677
12.5324,2381
12.5381,1996
12.5439,1940
12.5496,1847
12.5553,1479
12.561,2026
12.5668,2379
12.5725,2934
12.5782,2567
12.5839,2294
12.5896,2821
12.5954,2120
12.6011,2021
12.6068,2466
12.6125,2337
12.6182,1473
12.624,1613
12.6297,1984
12.6354,1751
12.6411,1899
12.6469,2665
12.6526,4292
12.6583,7352
12.664,9558
12.6697,9582
12.6755,6952
12.6812,4617
12.6869,1909
12.6926,1585
12.6984,1774
12.7041,3366
12.7098,6117
12.7155,10138
12.7212,9910
12.727,8947
12.7327,4788
12.7384,4250
12.7441,5608
12.7499,8714
12.7556,8342
12.7613,6005
12.767,3801
12.7727,2367
12.7785,1708
12.7842,1396
12.7899,858
12.7956,361
12.8014,592
12.8071,817
12.8128,987
12.8185,1405
12.8242,1180
12.83,816
12.8357,651
12.8414,1090
12.8471,1086
12.8529,1264
12.8586,816
12.8643,844
12.87,567
12.8757,371
12.8815,567
12.8872,850
12.8929,872
12.8986,282
12.9043,946
12.9101,803
12.9158,501
12.9215,552
12.9272,618
12.933,1228
12.9387,2965
12.9444,9373
12.9501,22765
12.9558,39127
12.9616,46094
12.9673,40450
12.973,25388
12.9787,11551
12.9845,4806
12.9902,1590
12.9959,886
13.0016,702
13.0073,1537
13.0131,1172
13.0188,331
13.0245,767
13.0302,839
13.036,1700
13.0417,3145
13.0474,5081
13.0531,6933
13.0588,6173
13.0646,3627
13.0703,1806
13.076,595
13.0817,157
13.0875,1155
13.0932,335
13.0989,1307
13.1046,4143
13.1103,8052
13.1161,11878
13.1218,14811
13.1275,14996
13.1332,13183
13.1389,8182
13.1447,5084
13.1504,3406
13.1561,2225
13.1618,3005
13.1676,2543
13.1733,1874
13.179,1936
13.1847,972
13.1904,1773
13.1962,4725
13.2019,9942
13.2076,13427
13.2133,11931
13.2191,8811
13.2248,4411
13.2305,2244
13.2362,1607
13.2419,1970
13.2477,1831
13.2534,1354
13.2591,1039
13.2648,747
13.2706,674
13.2763,882
13.282,743
13.2877,755
13.2934,346
13.2992,715
13.3049,655
13.3106,457
13.3163,421
13.3221,924
13.3278,705
13.3335,237
13.3392,652
13.3449,264
13.3507,289
13.3564,410
13.3621,613
13.3678,584
13.3735,1052
13.3793,697
13.385,368
13.3907,742
13.3964,597
13.4022,457
13.4079,864
13.4136,560
13.4193,548
13.425,520
13.4308,958
13.4365,567
13.4422,487
13.4479,421
13.4537,638
13.4594,406
13.4651,630
13.4708,713
13.4765,793
13.4823,460
13.488,471
13.4937,567
13.4994,1441
13.5052,632
13.5109,826
13.5166,314
13.5223,355
13.528,479
13.5338,500
13.5395,384
13.5452,532
13.5509,499
13.5567,164
13.5624,441
13.5681,334
13.5738,1022
13.5795,935
13.5853,556
13.591,472
13.5967,579
13.6024,503
13.6082,610
13.6139,0
13.6196,867
13.6253,1016
13.631,1196
13.6368,1247
13.6425,1487
13.6482,1532
13.6539,1921
13.6596,1353
13.6654,863
13.6711,680
13.6768,499
13.6825,884
13.6883,685
13.694,553
13.6997,894
13.7054,724
13.7111,153
13.7169,815
13.7226,581
13.7283,251
13.734,753
13.7398,794
13.7455,866
13.7512,540
13.7569,796
13.7626,371
13.7684,410
13.7741,577
13.7798,451
13.7855,973
13.7913,569
13.797,698
13.8027,687
13.8084,644
13.8141,542
13.8199,607
13.8256,552
13.8313,779
13.837,699
13.8428,417
13.8485,725
13.8542,464
13.8599,752
13.8656,0
13.8714,412
13.8771,622
13.8828,463
13.8885,360
13.8942,1018
13.9,801
13.9057,188
13.9114,612
13.9171,548
13.9229,652
13.9286,676
13.9343,723
13.94,574
13.9457,585
13.9515,349
13.9572,688
13.9629,179
13.9686,529
13.9744,153
13.9801,426
13.9858,193
13.9915,545
13.9972,405
14.003,428
14.0087,400
14.0144,237
14.0201,388
14.0259,476
14.0316,359
14.0373,516
14.043,1048
14.0487,467
14.0545,209
14.0602,247
14.0659,771
14.0716,305
14.0774,230
14.0831,515
14.0888,428
14.0945,450
14.1002,160
14.106,330
14.1117,328
14.1174,165
14.1231,168
14.1288,516
14.1346,613
14.1403,582
14.146,346
14.1517,408
14.1575,187
14.1632,335
14.1689,0
14.1746,628
14.1803,156
14.1861,407
14.1918,430
14.1975,0
14.2032,673
14.209,154
14.2147,170
14.2204,500
14.2261,329
14.2318,542
14.2376,453
14.2433,258
14.249,437
14.2547,854
14.2605,758
14.2662,641
14.2719,551
14.2776,512
14.2833,567
14.2891,364
14.2948,573
14.3005,167
14.3062,666
14.312,334
14.3177,607
14.3234,705
14.3291,215
14.3348,355
14.3406,384
14.3463,628
14.352,182
14.3577,650
14.3635,431
14.3692,478
14.3749,316
14.3806,0
14.3863,519
14.3921,467
14.3978,261
14.4035,315
14.4092,182
14.4149,169
14.4207,432
14.4264,422
14.4321,539
14.4378,700
14.4436,292
14.4493,353
14.455,340
14.4607,801
14.4664,585
14.4722,778
14.4779,662
14.4836,451
14.4893,373
14.4951,655
14.5008,1235
14.5065,4487
14.5122,11002
14.5179,18870
14.5237,21595
14.5294,21395
14.5351,14055
14.5408,6866
14.5466,2871
14.5523,1672
14.558,538
14.5637,658
14.5694,393
14.5752,353
14.5809,452
14.5866,284
14.5923,867
14.5981,637
14.6038,266
14.6095,582
14.6152,454
14.6209,472
14.6267,339
14.6324,764
14.6381,416
14.6438,590
14.6495,681
14.6553,183
14.661,273
14.6667,269
14.6724,242
14.6782,456
14.6839,397
14.6896,384
14.6953,504
14.701,343
14.7068,198
14.7125,612
14.7182,625
14.7239,386
14.7297,358
14.7354,393
14.7411,364
14.7468,552
14.7525,779
14.7583,660
14.764,236
14.7697,601
14.7754,205
14.7812,385
14.7869,236
14.7926,658
14.7983,677
14.804,329
14.8098,778
14.8155,757
14.8212,906
14.8269,614
14.8327,385
14.8384,571
14.8441,393
14.8498,399
14.8555,409
14.8613,845
14.867,667
14.8727,222
14.8784,605
14.8841,595
14.8899,450
14.8956,765
14.9013,630
14.907,408
14.9128,329
14.9185,665
14.9242,451
14.9299,453
14.9356,642
14.9414,653
14.9471,560
14.9528,166
14.9585,529
14.9643,679
14.97,576
14.9757,590
14.9814,695
14.9871,544
14.9929,601
14.9986,308
15.0043,390
15.01,684
15.0158,325
15.0215,894
15.0272,177
15.0329,0
15.0386,677
15.0444,671
15.0501,375
15.0558,670
15.0615,433
15.0673,639
15.073,602
15.0787,833
15.0844,605
15.0901,594
15.0959,774
15.1016,899
15.1073,199
15.113,341
15.1188,554
15.1245,367
15.1302,524
15.1359,621
15.1416,624
15.1474,717
15.1531,550
15.1588,537
15.1645,435
15.1702,546
15.176,385
15.1817,423
15.1874,706
15.1931,524
15.1989,162
15.2046,579
15.2103,467
15.216,667
15.2217,581
15.2275,527
15.2332,650
15.2389,564
15.2446,290
15.2504,360
15.2561,585
15.2618,1239
15.2675,575
15.2732,317
15.279,945
15.2847,541
15.2904,575
15.2961,363
15.3019,464
15.3076,775
15.3133,200
15.319,344
15.3247,639
15.3305,693
15.3362,440
15.3419,370
15.3476,429
15.3534,347
15.3591,643
15.3648,561
15.3705,699
15.3762,238
15.382,596
15.3877,156
15.3934,237
15.3991,767
15.4048,436
15.4106,703
15.4163,537
15.422,219
15.4277,423
15.4335,511
15.4392,282
15.4449,348
15.4506,831
15.4563,231
15.4621,525
15.4678,723
15.4735,628
15.4792,673
15.485,429
15.4907,465
15.4964,490
15.5021,324
15.5078,213
15.5136,456
15.5193,604
15.525,495
15.5307,193
15.5365,150
15.5422,513
15.5479,457
15.5536,526
15.5593,523
15.5651,595
15.5708,598
15.5765,360
15.5822,189
15.588,667
15.5937,372
15.5994,1202
15.6051,690
15.6108,810
15.6166,1601
15.6223,1144
15.628,721
15.6337,945
15.6395,339
15.6452,312
15.6509,501
15.6566,920
15.6623,583
15.6681,701
15.6738,194
15.6795,560
15.6852,674
15.6909,962
15.6967,573
15.7024,795
15.7081,666
15.7138,463
15.7196,785
15.7253,725
15.731,480
15.7367,369
15.7424,468
15.7482,599
15.7539,610
15.7596,1085
15.7653,1132
15.7711,975
15.7768,377
15.7825,1344
15.7882,321
15.7939,528
15.7997,808
15.8054,601
15.8111,440
15.8168,668
15.8226,985
15.8283,749
15.834,570
15.8397,759
15.8454,515
15.8512,530
15.8569,656
15.8626,892
15.8683,758
15.8741,567
15.8798,687
15.8855,723
15.8912,696
15.8969,858
15.9027,1318
15.9084,2205
15.9141,4648
15.9198,8652
15.9255,11801
15.9313,11915
15.937,8974
15.9427,5087
15.9484,3188
15.9542,1582
15.9599,999
15.9656,1104
15.9713,1134
15.977,648
15.9828,924
15.9885,969
15.9942,851
15.9999,752
16.0056,507
16.0114,656
16.0171,468
16.0228,664
16.0285,444
16.0343,641
16.04,414
16.0457,421
16.0514,675
16.0572,603
16.0629,384
16.0686,442
16.0743,766
16.08,691
16.0858,851
16.0915,732
16.0972,586
16.1029,746
16.1087,732
16.1144,809
16.1201,993
16.1258,765
16.1315,562
16.1373,624
16.143,572
16.1487,440
16.1544,438
16.1601,716
16.1659,608
16.1716,524
16.1773,1020
16.183,903
16.1887,498
16.1945,511
16.2002,592
16.2059,1301
16.2116,569
16.2174,412
16.2231,537
16.2288,519
16.2345,791
16.2403,493
16.246,840
16.2517,670
16.2574,755
16.2631,850
16.2689,496
16.2746,657
16.2803,811
16.286,644
16.2918,521
16.2975,826
16.3032,784
16.3089,812
16.3146,1044
16.3204,740
16.3261,668
16.3318,697
16.3375,603
16.3433,810
16.349,711
16.3547,996
16.3604,900
16.3661,724
16.3718,791
16.3776,1109
16.3833,1166
16.389,1387
16.3947,835
16.4005,650
16.4062,997
16.4119,1296
16.4176,450
16.4233,635
16.4291,784
16.4348,573
16.4405,584
16.4462,880
16.452,892
16.4577,669
16.4634,957
16.4691,823
16.4749,1113
16.4806,916
16.4863,758
16.492,694
16.4977,675
16.5035,585
16.5092,888
16.5149,689
16.5206,309
16.5264,717
16.5321,1002
16.5378,903
16.5435,347
16.5492,714
16.555,862
16.5607,1163
16.5664,1001
16.5721,563
16.5779,1313
16.5836,753
16.5893,1453
16.595,1154
16.6007,781
16.6064,822
16.6122,782
16.6179,914
16.6236,848
16.6293,658
16.6351,863
16.6408,1315
16.6465,931
16.6522,634
16.658,840
16.6637,799
16.6694,945
16.6751,898
16.6808,728
16.6866,1060
16.6923,1121
16.698,929
16.7037,920
16.7095,1240
16.7152,1301
16.7209,859
16.7266,1021
16.7323,567
16.7381,859
16.7438,767
16.7495,1115
16.7552,918
16.761,1358
16.7667,1351
16.7724,859
16.7781,578
16.7838,1166
16.7895,777
16.7953,627
16.801,543
16.8067,980
16.8124,1150
16.8182,1169
16.8239,1409
16.8296,1522
16.8353,1376
16.841,1394
16.8468,1311
16.8525,1346
16.8582,1008
16.8639,1165
16.8697,1128
16.8754,1328
16.8811,822
16.8868,1336
16.8926,1205
16.8983,758
16.904,871
16.9097,1078
16.9154,1331
16.9212,787
16.9269,744
16.9326,1259
16.9383,1286
16.9441,1039
16.9498,1159
16.9555,1146
16.9612,830
16.9669,1066
16.9727,1157
16.9784,1424
16.9841,1541
16.9898,902
16.9956,1668
17.0013,1461
17.007,1472
17.0127,1352
17.0184,1324
17.0242,1092
17.0299,1200
17.0356,971
17.0413,1041
17.047,694
17.0528,1125
17.0585,1120
17.0642,1368
17.0699,1026
17.0757,1085
17.0814,1074
17.0871,1726
17.0928,1730
17.0985,1851
17.1043,1330
17.11,977
17.1157,1150
17.1214,1096
17.1272,1473
17.1329,1123
17.1386,944
17.1443,1181
17.1501,1385
17.1558,1063
17.1615,1458
17.1672,886
17.1729,1323
17.1787,657
17.1844,1602
17.1901,1905
17.1958,3818
17.2015,6785
17.2073,8146
17.213,8060
17.2187,6463
17.2244,4278
17.2301,2961
17.2359,2771
17.2416,2145
17.2473,1880
17.253,1800
17.2588,1161
17.2645,1157
17.2702,1449
17.2759,1480
17.2816,1215
17.2874,1885
17.2931,1085
17.2988,1291
17.3045,1186
17.3103,1241
17.316,1321
17.3217,1693
17.3274,1360
17.3332,1848
17.3389,1433
17.3446,1066
17.3503,946
17.356,1408
17.3618,999
17.3675,1253
17.3732,1233
17.3789,1702
17.3847,1380
17.3904,813
17.3961,1147
17.4018,2088
17.4075,1768
17.4133,1291
17.419,1173
17.4247,1416
17.4304,962
17.4361,1674
17.4419,1252
17.4476,1521
17.4533,1855
17.459,1594
17.4647,1840
17.4705,1357
17.4762,1006
17.4819,1148
17.4876,1388
17.4934,1422
17.4991,1413
17.5048,1530
17.5105,2336
17.5162,1154
17.522,1291
17.5277,1510
17.5334,1287
17.5391,1678
17.5449,1393
17.5506,1307
17.5563,1273
17.562,1460
17.5678,1510
17.5735,1431
17.5792,1549
17.5849,1361
17.5906,1584
17.5964,1464
17.6021,2064
17.6078,1794
17.6135,1771
17.6193,1443
17.625,1835
17.6307,1541
17.6364,1559
17.6421,1245
17.6479,2075
17.6536,1459
17.6593,1424
17.665,2349
17.6707,1524
17.6765,1243
17.6822,1277
17.6879,1294
17.6936,2365
17.6994,1534
17.7051,1724
17.7108,1335
17.7165,1592
17.7222,2007
17.728,1941
17.7337,1573
17.7394,1569
17.7451,1546
17.7509,1682
17.7566,1824
17.7623,2188
17.768,1428
17.7737,1588
17.7795,1888
17.7852,1902
17.7909,2257
17.7966,1530
17.8024,1554
17.8081,1889
17.8138,2035
17.8195,1567
17.8252,1997
17.831,2234
17.8367,1615
17.8424,2086
17.8481,1923
17.8539,2277
17.8596,1557
17.8653,2430
17.871,1760
17.8767,2426
17.8825,1413
17.8882,2624
17.8939,1651
17.8996,2056
17.9054,2600
17.9111,4159
17.9168,4654
17.9225,5591
17.9282,4011
17.9339,3261
17.9397,2734
17.9454,2525
17.9511,2478
17.9568,2571
17.9626,1597
17.9683,1834
17.974,2518
17.9797,1435
17.9855,2231
17.9912,2281
17.9969,2055
18.0026,1828
18.0083,2336
18.0141,1840
18.0198,1807
18.0255,2259
18.0312,2514
18.037,2366
18.0427,1835
18.0484,1615
18.0541,1402
18.0598,2533
18.0656,2246
18.0713,1522
18.077,2148
18.0827,2154
18.0885,2711
18.0942,2057
18.0999,1919
18.1056,1720
18.1113,2406
18.1171,2134
18.1228,2271
18.1285,1851
18.1342,2414
18.14,2526
18.1457,2327
18.1514,2230
18.1571,2047
18.1628,1881
18.1686,2250
18.1743,2189
18.18,1997
18.1857,2483
18.1914,1904
18.1972,1796
18.2029,1944
18.2086,2457
18.2143,2605
18.2201,2667
18.2258,2176
18.2315,2317
18.2372,1866
18.2429,2856
18.2487,3035
18.2544,2423
18.2601,2373
18.2658,2020
18.2716,2643
18.2773,2376
18.283,2575
18.2887,2851
18.2944,2278
18.3002,2175
18.3059,2233
18.3116,1954
18.3173,2425
18.3231,2905
18.3288,2092
18.3345,3301
18.3402,2457
18.3459,2705
18.3516,3774
18.3574,5173
18.3631,7173
18.3688,9574
18.3745,10436
18.3803,7254
18.386,5914
18.3917,4100
18.3974,3125
18.4032,3615
18.4089,2837
18.4146,3603
18.4203,2950
18.426,2461
18.4318,3098
18.4375,3074
18.4432,3390
18.4489,3851
18.4547,2767
18.4604,2428
18.4661,2409
18.4718,3288
18.4775,3274
18.4833,3411
18.489,2895
18.4947,3388
18.5004,2886
18.5062,2709
18.5119,3073
18.5176,2840
18.5233,3844
18.529,2723
18.5348,2919
18.5405,2575
18.5462,3894
18.5519,2873
18.5577,3744
18.5634,3280
18.5691,2725
18.5748,3808
18.5805,2532
18.5863,3528
18.592,2958
18.5977,3387
18.6034,2964
18.6092,3452
18.6149,3719
18.6206,3750
18.6263,3177
18.632,3476
18.6378,3104
18.6435,3326
18.6492,3299
18.6549,3488
18.6607,2927
18.6664,3367
18.6721,3772
18.6778,2996
18.6835,3125
18.6893,3295
18.695,3811
18.7007,3194
18.7064,3040
18.7121,3396
18.7179,3107
18.7236,2969
18.7293,4433
18.735,8049
18.7408,14002
18.7465,23056
18.7522,29576
18.7579,28621
18.7636,20757
18.7694,13044
18.7751,8591
18.7808,5918
18.7865,5099
18.7922,4718
18.798,5687
18.8037,4222
18.8094,5320
18.8151,3705
18.8209,4387
18.8266,4442
18.8323,4306
18.838,4491
18.8438,4197
18.8495,4768
18.8552,3154
18.8609,3324
18.8666,4096
18.8724,4443
18.8781,3886
18.8838,4030
18.8895,4635
18.8953,3803
18.901,4640
18.9067,4450
18.9124,4756
18.9181,3902
18.9239,4286
18.9296,3802
18.9353,4445
18.941,4275
18.9467,4180
18.9525,4240
18.9582,3863
18.9639,4089
18.9696,5080
18.9754,4089
18.9811,4970
18.9868,3754
18.9925,4081
18.9982,4554
19.004,4365
19.0097,4925
19.0154,4371
19.0211,4620
19.0269,4034
19.0326,4657
19.0383,5025
19.044,4204
19.0497,3862
19.0555,4470
19.0612,4275
19.0669,4468
19.0726,4691
19.0784,4562
19.0841,3787
19.0898,4611
19.0955,4658
19.1012,4475
19.107,5194
19.1127,4101
19.1184,4474
19.1241,5295
19.1299,5152
19.1356,3785
19.1413,4099
19.147,4884
19.1527,4767
19.1585,4616
19.1642,4630
19.1699,4467
19.1756,4755
19.1814,5170
19.1871,4749
19.1928,4958
19.1985,5291
19.2042,5317
19.2099,4642
19.2157,4409
19.2214,4348
19.2271,4965
19.2328,5049
19.2386,4429
19.2443,4998
19.25,4515
19.2557,4966
19.2615,5229
19.2672,4695
19.2729,5323
19.2786,6053
19.2843,6218
19.2901,4769
19.2958,5077
19.3015,6124
19.3072,5579
19.313,5749
19.3187,5599
19.3244,5802
19.3301,5000
19.3358,5423
19.3416,5694
19.3473,4600
19.353,5162
19.3587,5793
19.3645,6013
19.3702,5251
19.3759,5317
19.3816,5881
19.3873,5785
19.3931,5070
19.3988,5073
19.4045,5073
19.4102,5069
19.416,5160
19.4217,5682
19.4274,6162
19.4331,9725
19.4388,11394
19.4446,12922
19.4503,12816
19.456,9951
19.4617,7901
19.4674,7160
19.4732,6739
19.4789,6949
19.4846,6030
19.4903,6318
19.4961,6548
19.5018,5345
19.5075,6203
19.5132,6877
19.5189,5968
19.5247,6659
19.5304,6157
19.5361,6295
19.5418,5730
19.5476,7128
19.5533,6156
19.559,6980
19.5647,5651
19.5704,5958
19.5762,6303
19.5819,6035
19.5876,6685
19.5933,6862
19.5991,7165
19.6048,6200
19.6105,6361
19.6162,6968
19.6219,6073
19.6277,6192
19.6334,6567
19.6391,6078
19.6448,5643
19.6506,7509
19.6563,6587
19.662,7417
19.6677,6969
19.6734,6652
19.6792,6853
19.6849,6474
19.6906,6286
19.6963,6944
19.702,7708
19.7078,6506
19.7135,5784
19.7192,7342
19.7249,6748
19.7307,7140
19.7364,6659
19.7421,7087
19.7478,7680
19.7535,6930
19.7593,7902
19.765,6992
19.7707,7141
19.7764,7962
19.7822,7403
19.7879,8012
19.7936,7272
19.7993,7093
19.805,7264
19.8108,7451
19.8165,7971
19.8222,7421
19.8279,7467
19.8337,7053
19.8394,7512
19.8451,7638
19.8508,7638
19.8565,8235
19.8623,7375
19.868,6764
19.8737,7719
19.8794,7943
19.8851,7890
19.8909,7599
19.8966,6842
19.9023,8245
19.908,7833
19.9138,7683
19.9195,8099
19.9252,7097
19.9309,7303
19.9367,7299
19.9424,8263
19.9481,7326
19.9538,8471
19.9595,8728
19.9653,8204
19.971,8285
19.9767,7455
19.9824,8394
19.9881,7818
19.9939,7668
19.9996,8188
20.0053,9295
20.011,8625
20.0168,7660
20.0225,8419
20.0282,9317
20.0339,8893
20.0396,8828
20.0454,9040
20.0511,8764
20.0568,8581
20.0625,9176
20.0683,9178
20.074,8898
20.0797,8240
20.0854,8414
20.0911,9300
20.0969,8396
20.1026,7683
20.1083,9001
20.114,8378
20.1198,8755
20.1255,10340
20.1312,8837
20.1369,9049
20.1426,10077
20.1484,9795
20.1541,8687
20.1598,9370
20.1655,9935
20.1713,9821
20.177,9714
20.1827,8932
20.1884,8551
20.1941,10354
20.1999,9094
20.2056,9773
20.2113,9958
20.217,10716
20.2227,9992
20.2285,10070
20.2342,9204
20.2399,9438
20.2456,9355
20.2514,8930
20.2571,9068
20.2628,9447
20.2685,9534
20.2742,10330
20.28,9372
20.2857,10756
20.2914,10053
20.2971,9235
20.3028,10590
20.3086,11033
20.3143,10915
20.32,8978
20.3257,10000
20.3315,10390
20.3372,11301
20.3429,10175
20.3486,10711
20.3544,9604
20.3601,10915
20.3658,11069
20.3715,10917
20.3772,10922
20.383,11253
20.3887,10783
20.3944,9886
20.4001,9844
20.4059,10855
20.4116,11794
20.4173,11278
20.423,11571
20.4287,12129
20.4345,12541
20.4402,13595
20.4459,15831
20.4516,17922
20.4573,16978
20.4631,16144
20.4688,13454
20.4745,12130
20.4802,12858
20.486,11935
20.4917,12080
20.4974,12838
20.5031,11291
20.5088,13543
20.5146,13154
20.5203,11743
20.526,12467
20.5317,12611
20.5375,12306
20.5432,12277
20.5489,11890
20.5546,11385
20.5603,12198
20.5661,13677
20.5718,12866
20.5775,13348
20.5832,12606
20.589,11165
20.5947,12532
20.6004,12425
20.6061,12810
20.6118,13721
20.6176,13387
20.6233,11633
20.629,12729
20.6347,12114
20.6405,12325
20.6462,13493
20.6519,12323
20.6576,13660
20.6633,13441
20.6691,12931
20.6748,12727
20.6805,12833
20.6862,12663
20.692,13958
20.6977,13433
20.7034,12428
20.7091,13944
20.7148,12741
20.7205,14150
20.7263,13629
20.732,13641
20.7377,13426
20.7434,13680
20.7492,13728
20.7549,14034
20.7606,13020
20.7663,13235
20.7721,13559
20.7778,14803
20.7835,14286
20.7892,14740
20.7949,14612
20.8007,14503
20.8064,13952
20.8121,16299
20.8178,16165
20.8236,14661
20.8293,15648
20.835,14510
20.8407,16180
20.8464,14314
20.8522,16008
20.8579,14837
20.8636,15036
20.8693,14872
20.8751,15735
20.8808,17430
20.8865,15036
20.8922,15613
20.8979,16867
20.9037,16979
20.9094,16733
20.9151,17161
20.9208,16799
20.9266,16165
20.9323,17317
20.938,18384
20.9437,18100
20.9494,17137
20.9552,17081
20.9609,16523
20.9666,16881
20.9723,16867
20.978,19422
20.9838,17104
20.9895,16999
20.9952,19651
21.0009,17046
21.0067,17413
21.0124,17683
21.0181,18256
21.0238,17477
21.0295,17008
21.0353,17451
21.041,18477
21.0467,17466
21.0524,17574
21.0582,18423
21.0639,18322
21.0696,16766
21.0753,17467
21.081,18605
21.0868,18321
21.0925,18789
21.0982,16710
21.1039,18882
21.1097,16807
21.1154,18945
21.1211,17775
21.1268,18508
21.1325,18675
21.1382,17312
21.144,18734
21.1497,18948
21.1554,18850
21.1611,18691
21.1669,19326
21.1726,19237
21.1783,19144
21.184,19693
21.1898,19857
21.1955,18624
21.2012,19569
21.2069,19768
21.2126,19693
21.2184,18762
21.2241,19113
21.2298,21033
21.2355,20785
21.2413,19694
21.247,21380
21.2527,22600
21.2584,19371
21.2641,21040
21.2699,20481
21.2756,22090
21.2813,19575
21.287,19749
21.2928,21480
21.2985,22627
21.3042,21950
21.3099,21455
21.3156,23434
21.3214,21342
21.3271,22387
21.3328,21819
21.3385,20692
21.3443,21148
21.35,21108
21.3557,22996
21.3614,21126
21.3671,23531
21.3729,22326
21.3786,23290
21.3843,23087
21.39,26385
21.3958,24524
21.4015,27346
21.4072,24950
21.4129,24504
21.4186,23992
21.4244,24001
21.4301,24277
21.4358,22698
21.4415,23786
21.4473,23763
21.453,23376
21.4587,21645
21.4644,25117
21.4701,24111
21.4759,24215
21.4816,22297
21.4873,23961
21.493,22429
21.4987,23669
21.5045,23877
21.5102,23674
21.5159,23615
21.5216,24048
21.5274,25052
21.5331,25496
21.5388,25020
21.5445,22975
21.5502,25443
21.556,23459
21.5617,25015
21.5674,24458
21.5731,24725
21.5789,25756
21.5846,26041
21.5903,25885
21.596,24980
21.6017,24648
21.6075,26420
21.6132,26047
21.6189,27545
21.6246,26640
21.6304,25423
21.6361,25780
21.6418,24899
21.6475,26345
21.6532,28403
21.659,26251
21.6647,26082
21.6704,28048
21.6761,26328
21.6819,25164
21.6876,26345
21.6933,26755
21.699,26783
21.7047,27201
21.7105,27676
21.7162,29976
21.7219,26561
21.7276,27957
21.7333,28410
21.7391,26730
21.7448,27195
21.7505,28675
21.7562,28203
21.762,28361
21.7677,28871
21.7734,27960
21.7791,28927
21.7848,29129
21.7906,28936
21.7963,27913
21.802,29110
21.8077,27721
21.8135,29460
21.8192,30280
21.8249,29420
21.8306,29338
21.8363,30122
21.8421,29467
21.8478,30104
21.8535,28833
21.8592,28169
21.865,29579
21.8707,31542
21.8764,29447
21.8821,27865
21.8878,30624
21.8936,29935
21.8993,31319
21.905,31101
21.9107,30289
21.9165,29955
21.9222,29040
21.9279,33314
21.9336,30231
21.9393,28817
21.9451,32079
21.9508,31422
21.9565,31575
21.9622,32705
21.9679,31356
21.9737,32125
21.9794,33264
21.9851,32958
21.9908,32606
21.9966,32285
22.0023,31472
22.008,31247
22.0137,32460
22.0194,34838
22.0252,33478
22.0309,34159
22.0366,35661
22.0423,48172
22.0481,76808
22.0538,120901
22.0595,160242
22.0652,173093
22.0709,139890
22.0767,102618
22.0824,73072
22.0881,53649
22.0938,50204
22.0996,45713
22.1053,44165
22.111,43954
22.1167,43091
22.1224,44101
22.1282,41913
22.1339,40473
22.1396,41438
22.1453,41430
22.1511,40020
22.1568,37193
22.1625,39827
22.1682,40310
22.1739,39293
22.1797,41328
22.1854,40030
22.1911,38799
22.1968,39475
22.2026,37049
22.2083,38275
22.214,38392
22.2197,38209
22.2254,41840
22.2312,39049
22.2369,41870
22.2426,38226
22.2483,39800
22.254,40797
22.2598,41397
22.2655,39912
22.2712,41587
22.2769,41138
22.2827,41908
22.2884,40562
22.2941,40648
22.2998,41461
22.3055,40896
22.3113,39385
22.317,41842
22.3227,40086
22.3284,40282
22.3342,40910
22.3399,40951
22.3456,41446
22.3513,41003
22.357,41478
22.3628,40476
22.3685,42124
22.3742,41180
22.3799,40339
22.3857,40777
22.3914,40047
22.3971,42553
22.4028,41417
22.4085,41398
22.4143,42391
22.42,42657
22.4257,40834
22.4314,41137
22.4372,42631
22.4429,42497
22.4486,43715
22.4543,41593
22.46,44337
22.4658,45101
22.4715,44603
22.4772,42880
22.4829,43239
22.4886,43165
22.4944,45431
22.5001,44311
22.5058,45743
22.5115,43970
22.5173,43128
22.523,45660
22.5287,45500
22.5344,44995
22.5401,43020
22.5459,43400
22.5516,44588
22.5573,48645
22.563,44560
22.5688,43136
22.5745,43087
22.5802,46014
22.5859,44399
22.5916,46069
22.5974,43530
22.6031,46580
22.6088,43865
22.6145,48007
22.6203,46194
22.626,46568
22.6317,45465
22.6374,47100
22.6431,44605
22.6488,47332
22.6546,47630
22.6603,46088
22.666,44494
22.6717,46191
22.6775,47288
22.6832,45316
22.6889,45887
22.6946,47328
22.7004,46469
22.7061,47107
22.7118,48362
22.7175,48717
22.7233,48860
22.729,48063
22.7347,47455
22.7404,49800
22.7461,47999
22.7519,48491
22.7576,50526
22.7633,49025
22.769,48756
22.7747,49311
22.7805,49064
22.7862,47220
22.7919,48336
22.7976,50710
22.8034,50219
22.8091,48085
22.8148,49251
22.8205,50623
22.8262,49685
22.832,46070
22.8377,49095
22.8434,50543
22.8491,49422
22.8549,49705
22.8606,50388
22.8663,53225
22.872,51980
22.8777,50026
22.8835,50363
22.8892,51369
22.8949,50044
22.9006,48266
22.9064,50138
22.9121,48668
22.9178,50447
22.9235,50078
22.9292,52266
22.935,51870
22.9407,49060
22.9464,52371
22.9521,51211
22.9579,50659
22.9636,53234
22.9693,51690
22.975,53373
22.9807,51867
22.9865,53349
22.9922,52904
22.9979,51208
23.0036,53867
23.0093,51872
23.0151,51873
23.0208,51696
23.0265,53178
23.0322,54878
23.038,54687
23.0437,54008
23.0494,54763
23.0551,53089
23.0608,54653
23.0666,53562
23.0723,56299
23.078,55697
23.0837,56024
23.0894,54801
23.0952,53371
23.1009,56103
23.1066,55293
23.1123,53927
23.1181,56939
23.1238,54407
23.1295,55249
23.1352,57961
23.141,56463
23.1467,54538
23.1524,56001
23.1581,55259
23.1638,59071
23.1696,54945
23.1753,56505
23.181,55713
23.1867,55609
23.1925,57210
23.1982,58264
23.2039,59307
23.2096,58868
23.2153,57487
23.2211,57571
23.2268,58072
23.2325,56852
23.2382,57645
23.2439,57570
23.2497,53508
23.2554,59426
23.2611,57152
23.2668,57283
23.2726,57094
23.2783,57103
23.284,56431
23.2897,56870
23.2954,58610
23.3012,58012
23.3069,58510
23.3126,58651
23.3183,55844
23.3241,60455
23.3298,58801
23.3355,58008
23.3412,58068
23.3469,61432
23.3527,60454
23.3584,58558
23.3641,59362
23.3698,57448
23.3756,60855
23.3813,59153
23.387,59751
23.3927,60437
23.3984,60274
23.4042,56987
23.4099,58716
23.4156,58560
23.4213,56527
23.4271,60256
23.4328,59814
23.4385,59135
23.4442,61369
23.4499,59622
23.4557,59946
23.4614,61245
23.4671,61207
23.4728,60726
23.4786,60857
23.4843,56477
23.49,61096
23.4957,59456
23.5014,59712
23.5072,63037
23.5129,62677
23.5186,62617
23.5243,60176
23.53,61727
23.5358,58944
23.5415,61101
23.5472,62321
23.5529,59873
23.5587,62032
23.5644,64292
23.5701,65196
23.5758,62426
23.5815,63196
23.5873,61368
23.593,61900
23.5987,63923
23.6044,62502
23.6102,61845
23.6159,61262
23.6216,63245
23.6273,63743
23.633,60309
23.6388,62024
23.6445,62620
23.6502,62176
23.6559,63719
23.6617,63979
23.6674,64050
23.6731,60388
23.6788,61926
23.6845,65850
23.6903,64544
23.696,62788
23.7017,62207
23.7074,62982
23.7132,61844
23.7189,62181
23.7246,62006
23.7303,63273
23.736,65373
23.7418,66321
23.7475,63750
23.7532,63405
23.7589,63526
23.7646,64408
23.7704,61527
23.7761,66246
23.7818,64928
23.7875,62703
23.7933,63887
23.799,66004
23.8047,64356
23.8104,60874
23.8161,62524
23.8219,65069
23.8276,63544
23.8333,64552
23.839,63740
23.8448,62407
23.8505,61700
23.8562,64655
23.8619,65156
23.8676,62215
23.8734,65046
23.8791,64658
23.8848,63127
23.8905,59704
23.8963,65840
23.902,64585
23.9077,62915
23.9134,66792
23.9191,62978
23.9249,63718
23.9306,64045
23.9363,63394
23.942,64217
23.9478,65420
23.9535,67254
23.9592,66291
23.9649,62075
23.9706,65005
23.9764,62627
23.9821,63381
23.9878,64724
23.9935,67485
23.9992,65996
24.005,65260
24.0107,65025
24.0164,63505
24.0221,63007
24.0279,63502
24.0336,62857
24.0393,64407
24.045,65258
24.0507,66614
24.0565,62549
24.0622,63098
24.0679,63196
24.0736,66970
24.0794,64573
24.0851,65387
24.0908,62552
24.0965,65292
24.1022,64416
24.108,60851
24.1137,64264
24.1194,63046
24.1251,65392
24.1309,62955
24.1366,62998
24.1423,65280
24.148,60456
24.1537,64950
24.1595,64264
24.1652,64753
24.1709,64683
24.1766,65693
24.1824,66166
24.1881,63941
24.1938,64061
24.1995,62105
24.2052,65756
24.211,67453
24.2167,62403
24.2224,65287
24.2281,64846
24.2339,63294
24.2396,65096
24.2453,64717
24.251,65203
24.2567,64213
24.2625,64312
24.2682,65816
24.2739,64744
24.2796,63958
24.2853,64459
24.2911,65762
24.2968,66830
24.3025,62246
24.3082,62564
24.314,64626
24.3197,67508
24.3254,62926
24.3311,62892
24.3368,64860
24.3426,63553
24.3483,64074
24.354,63635
24.3597,61184
24.3655,62670
24.3712,63452
24.3769,62996
24.3826,63110
24.3883,63237
24.3941,62122
24.3998,65324
24.4055,62900
24.4112,64432
24.417,65225
24.4227,65019
24.4284,64461
24.4341,66437
24.4398,64241
24.4456,64042
24.4513,65082
24.457,64425
24.4627,64999
24.4685,65262
24.4742,65114
24.4799,65068
24.4856,62726
24.4913,62024
24.4971,65297
24.5028,64335
24.5085,65402
24.5142,64169
24.5199,64151
24.5257,65791
24.5314,64236
24.5371,62814
24.5428,63353
24.5486,63049
24.5543,62337
24.56,64876
24.5657,62004
24.5714,65257
24.5772,62052
24.5829,64063
24.5886,65812
24.5943,64594
24.6001,65617
24.6058,64607
24.6115,62428
24.6172,62439
24.6229,65424
24.6287,65377
24.6344,65622
24.6401,66704
24.6458,65820
24.6516,64367
24.6573,64276
24.663,61993
24.6687,63858
24.6744,64366
24.6802,65193
24.6859,64875
24.6916,62509
24.6973,62823
24.7031,66154
24.7088,65740
24.7145,64468
24.7202,63910
24.7259,65839
24.7317,63996
24.7374,63736
24.7431,65852
24.7488,64377
24.7545,62861
24.7603,63327
24.766,65762
24.7717,61590
24.7774,65961
24.7832,62459
24.7889,63338
24.7946,65958
24.8003,64265
24.806,63133
24.8118,64491
24.8175,63209
24.8232,66788
24.8289,62524
24.8347,64418
24.8404,63630
24.8461,62991
24.8518,64044
24.8575,62506
24.8633,63470
24.869,62979
24.8747,66598
24.8804,62125
24.8862,63891
24.8919,62226
24.8976,61559
24.9033,63599
24.909,64280
24.9148,61638
24.9205,65921
24.9262,62620
24.9319,61255
24.9377,65514
24.9434,63857
24.9491,63546
24.9548,64785
24.9605,66010
24.9663,61148
24.972,63912
24.9777,65251
24.9834,64675
24.9892,64207
24.9949,64930
