C:\MSDCHEM\1\DATA\SERINA\20180424_NLTAB_FRESH\SLR2_12_NltAB_BPER_1.d 24 Apr 18  12:28 pm
Start of data points
4.09247,19114
4.0982,19491
4.10392,18320
4.10963,16776
4.11535,19240
4.12108,18111
4.1268,18273
4.13252,18803
4.13825,17603
4.14397,18398
4.14968,18629
4.15542,18550
4.16113,18732
4.16685,19064
4.17258,18832
4.1783,19219
4.18402,18978
4.18975,17343
4.19547,18076
4.20118,17739
4.20692,19931
4.21263,18913
4.21835,18031
4.22408,18315
4.2298,18196
4.23552,17848
4.24123,16445
4.24697,16617
4.25268,15773
4.2584,18410
4.26413,15840
4.26985,16822
4.27557,16110
4.2813,17061
4.28702,16410
4.29273,16082
4.29847,15833
4.30418,14619
4.3099,16707
4.31563,15420
4.32135,13343
4.32707,13811
4.3328,12835
4.33852,13172
4.34423,11898
4.34997,12177
4.35568,12294
4.3614,11467
4.36712,10923
4.37285,11164
4.37857,10195
4.38428,10818
4.39002,11426
4.39573,9070
4.40145,10086
4.40718,9470
4.4129,8697
4.41862,9068
4.42435,8655
4.43007,9064
4.43578,7537
4.44152,8275
4.44723,7341
4.45295,7775
4.45868,7525
4.4644,7433
4.47012,6811
4.47585,6895
4.48157,5822
4.48728,7451
4.493,6077
4.49873,6897
4.50445,6352
4.51017,6196
4.5159,6019
4.52162,6146
4.52733,6492
4.53307,6616
4.53878,5304
4.5445,5619
4.55023,5247
4.55595,5528
4.56167,5914
4.5674,4787
4.57312,6162
4.57883,5149
4.58457,5465
4.59028,4937
4.596,4628
4.60173,4677
4.60745,4425
4.61317,4431
4.61888,4244
4.62462,3873
4.63033,4080
4.63605,4111
4.64178,3682
4.6475,4664
4.65322,3972
4.65895,4124
4.66467,4009
4.67038,3613
4.67612,3141
4.68183,4291
4.68755,4337
4.69328,4766
4.699,3718
4.70472,4133
4.71045,4046
4.71617,3951
4.72188,4357
4.72762,4304
4.73333,3734
4.73905,3576
4.74477,3224
4.7505,4124
4.75622,2983
4.76193,3990
4.76767,3405
4.77338,3512
4.7791,3454
4.78483,3259
4.79055,3344
4.79627,3842
4.802,3588
4.80772,2763
4.81343,3393
4.81917,3497
4.82488,3561
4.8306,3202
4.83633,3798
4.84205,3376
4.84777,3035
4.8535,3640
4.85922,3304
4.86493,2959
4.87065,3392
4.87638,2896
4.8821,2769
4.88782,2411
4.89355,3402
4.89927,2934
4.90498,3779
4.91072,3297
4.91643,3193
4.92215,2069
4.92788,3730
4.9336,2254
4.93932,2307
4.94505,2671
4.95077,2649
4.95648,2499
4.96222,3263
4.96793,2737
4.97365,2410
4.97938,2759
4.9851,2354
4.99082,2277
4.99653,2298
5.00227,2838
5.00798,2628
5.0137,3444
5.01943,3121
5.02515,2386
5.03087,2820
5.0366,2606
5.04232,2765
5.04803,2109
5.05377,2523
5.05948,2480
5.0652,1838
5.07093,2095
5.07665,2323
5.08237,1726
5.0881,2261
5.09382,2022
5.09953,2302
5.10527,2206
5.11098,2180
5.1167,2568
5.12242,2463
5.12815,2178
5.13387,2657
5.13958,2797
5.14532,1674
5.15103,2233
5.15675,2752
5.16248,1843
5.1682,3010
5.17392,2560
5.17965,1970
5.18537,1688
5.19108,1654
5.19682,2519
5.20253,2228
5.20825,2202
5.21398,1746
5.2197,1869
5.22542,2187
5.23115,1719
5.23687,1587
5.24258,2195
5.2483,2297
5.25403,2207
5.25975,1810
5.26547,1858
5.2712,2498
5.27692,2046
5.28263,1705
5.28837,1713
5.29408,2787
5.2998,2084
5.30553,3284
5.31125,2329
5.31697,3108
5.3227,2718
5.32842,2732
5.33413,2944
5.33987,2606
5.34558,2527
5.3513,2272
5.35703,2462
5.36275,1504
5.36847,2740
5.37418,3120
5.37992,2095
5.38563,2294
5.39135,2081
5.39708,1976
5.4028,2707
5.40852,2500
5.41425,2143
5.41997,2757
5.42568,2124
5.43142,1974
5.43713,1718
5.44285,2358
5.44858,1838
5.4543,2130
5.46002,2327
5.46575,1464
5.47147,2091
5.47718,1781
5.48292,1755
5.48863,2198
5.49435,1985
5.50008,1836
5.5058,2012
5.51152,1813
5.51723,1972
5.52297,1627
5.52868,1943
5.5344,1918
5.54013,2248
5.54585,1858
5.55157,1962
5.5573,1490
5.56302,2612
5.56873,1533
5.57447,1769
5.58018,2071
5.5859,2026
5.59163,1765
5.59735,1742
5.60307,2257
5.6088,2380
5.61452,1538
5.62023,2185
5.62597,1786
5.63168,1856
5.6374,1272
5.64312,1645
5.64885,2183
5.65457,1645
5.66028,1578
5.66602,1312
5.67173,1542
5.67745,1707
5.68318,1879
5.6889,2428
5.69462,1166
5.70035,1572
5.70607,1816
5.71178,1927
5.71752,1424
5.72323,1610
5.72895,1349
5.73468,1669
5.7404,1545
5.74612,1782
5.75185,1298
5.75757,1101
5.76328,1114
5.769,1579
5.77473,2247
5.78045,1620
5.78617,1318
5.7919,1669
5.79762,1271
5.80333,1397
5.80907,1744
5.81478,1274
5.8205,1951
5.82623,2160
5.83195,1725
5.83767,1355
5.8434,1418
5.84912,1407
5.85483,1311
5.86057,1346
5.86628,1827
5.872,1607
5.87773,1411
5.88345,1517
5.88917,1839
5.89488,1338
5.90062,2193
5.90633,1297
5.91205,1957
5.91778,1634
5.9235,2394
5.92922,2535
5.93495,2459
5.94067,2088
5.94638,2265
5.95212,2207
5.95783,1451
5.96355,1998
5.96928,1784
5.975,1323
5.98072,1808
5.98645,2072
5.99217,2031
5.99788,2369
6.00362,1565
6.00933,1772
6.01505,1160
6.02077,1433
6.0265,2144
6.03222,2034
6.03793,1772
6.04367,1613
6.04938,1403
6.0551,1616
6.06083,1416
6.06655,2026
6.07227,1840
6.078,2076
6.08372,1577
6.08943,962
6.09517,2314
6.10088,1109
6.1066,1439
6.11233,2059
6.11805,1179
6.12377,1813
6.1295,1875
6.13522,1685
6.14093,2236
6.14665,1785
6.15238,1558
6.1581,1757
6.16382,1483
6.16955,1462
6.17527,1182
6.18098,1299
6.18672,1345
6.19243,1585
6.19815,1331
6.20388,1067
6.2096,1738
6.21532,1543
6.22105,1397
6.22677,1342
6.23248,1708
6.23822,1890
6.24393,1847
6.24965,1314
6.25538,1257
6.2611,1567
6.26682,1208
6.27253,1884
6.27827,1672
6.28398,1334
6.2897,1190
6.29543,1696
6.30115,1684
6.30687,1554
6.3126,1698
6.31832,1241
6.32403,1139
6.32977,1355
6.33548,1354
6.3412,1615
6.34693,1649
6.35265,1784
6.35837,1206
6.3641,1724
6.36982,1640
6.37553,1549
6.38127,1574
6.38698,2224
6.3927,1514
6.39842,1238
6.40415,1465
6.40987,1662
6.41558,1286
6.42132,1116
6.42703,1562
6.43275,1315
6.43848,1601
6.4442,2036
6.44992,1503
6.45565,1542
6.46137,1860
6.46708,1379
6.47282,948
6.47853,1858
6.48425,1739
6.48998,883
6.4957,1392
6.50142,1372
6.50715,1353
6.51287,1108
6.51858,1902
6.5243,1579
6.53003,1760
6.53575,1157
6.54147,1287
6.5472,1579
6.55292,1361
6.55863,1609
6.56437,1362
6.57008,1346
6.5758,1374
6.58153,1673
6.58725,1593
6.59297,1419
6.5987,1519
6.60442,1537
6.61013,1619
6.61587,1233
6.62158,1581
6.6273,1458
6.63303,1829
6.63875,1234
6.64447,1694
6.65018,1488
6.65592,1568
6.66163,459
6.66735,1547
6.67308,1299
6.6788,1596
6.68452,1767
6.69025,1876
6.69597,1744
6.70168,1489
6.70742,1210
6.71313,1189
6.71885,990
6.72458,974
6.7303,1807
6.73602,1607
6.74175,1567
6.74747,1310
6.75318,2011
6.75892,2290
6.76463,3701
6.77035,3895
6.77607,4053
6.7818,4230
6.78752,3120
6.79323,3620
6.79897,3262
6.80468,3285
6.8104,2536
6.81613,2528
6.82185,2206
6.82757,1674
6.8333,1722
6.83902,1440
6.84473,1322
6.85047,1881
6.85618,1547
6.8619,1766
6.86763,1081
6.87335,2078
6.87907,1426
6.8848,1661
6.89052,1612
6.89623,1197
6.90195,1888
6.90768,1232
6.9134,1567
6.91912,1341
6.92485,1734
6.93057,1321
6.93628,1935
6.94202,1877
6.94773,1421
6.95345,1583
6.95918,1537
6.9649,1042
6.97062,1670
6.97635,1616
6.98207,1068
6.98778,1175
6.99352,1351
6.99923,1340
7.00495,1219
7.01068,1126
7.0164,968
7.02212,1273
7.02783,1737
7.03357,1379
7.03928,1267
7.045,1815
7.05073,1366
7.05645,1401
7.06217,1065
7.0679,1110
7.07362,1801
7.07933,1442
7.08507,1803
7.09078,1638
7.0965,1530
7.10223,1405
7.10795,1757
7.11367,1625
7.1194,1141
7.12512,1479
7.13083,1888
7.13657,1514
7.14228,1114
7.148,1048
7.15372,1636
7.15945,1880
7.16517,1652
7.17088,1134
7.17662,1557
7.18233,1390
7.18805,1835
7.19378,1419
7.1995,1493
7.20522,1737
7.21095,1482
7.21667,2019
7.22238,1296
7.22812,1427
7.23383,1466
7.23955,1536
7.24528,1959
7.251,1193
7.25672,1355
7.26245,1571
7.26817,1554
7.27388,2082
7.2796,1252
7.28533,1553
7.29105,1407
7.29677,1228
7.3025,1729
7.30822,1228
7.31393,1592
7.31967,1262
7.32538,1232
7.3311,1395
7.33683,1357
7.34255,1767
7.34827,1825
7.354,1549
7.35972,1254
7.36543,1500
7.37117,1121
7.37688,1337
7.3826,1226
7.38833,1696
7.39405,1053
7.39977,1822
7.40548,1086
7.41122,1461
7.41693,1161
7.42265,1516
7.42838,1403
7.4341,1518
7.43982,1399
7.44555,1849
7.45127,1408
7.45698,1644
7.46272,1403
7.46843,1625
7.47415,2107
7.47988,1747
7.4856,1548
7.49132,1901
7.49705,1586
7.50277,1480
7.50848,1216
7.51422,1315
7.51993,1472
7.52565,1470
7.53137,1215
7.5371,1140
7.54282,1556
7.54853,1901
7.55427,1513
7.55998,1784
7.5657,1335
7.57143,1349
7.57715,1474
7.58287,1126
7.5886,1217
7.59432,1663
7.60003,1559
7.60577,1243
7.61148,1689
7.6172,1306
7.62293,1422
7.62865,1417
7.63437,1756
7.6401,1337
7.64582,1178
7.65153,1136
7.65725,1187
7.66298,1565
7.6687,1365
7.67442,1604
7.68015,911
7.68587,1286
7.69158,1049
7.69732,1713
7.70303,1375
7.70875,1351
7.71448,1131
7.7202,1053
7.72592,1157
7.73165,1619
7.73737,1332
7.74308,1608
7.74882,2163
7.75453,1225
7.76025,1278
7.76598,1432
7.7717,1228
7.77742,1746
7.78313,1374
7.78887,1762
7.79458,1386
7.8003,1388
7.80603,1361
7.81175,2070
7.81747,1448
7.8232,1916
7.82892,1658
7.83463,1434
7.84037,1582
7.84608,1261
7.8518,1807
7.85753,1613
7.86325,1429
7.86897,1281
7.8747,1347
7.88042,1140
7.88613,1250
7.89187,1566
7.89758,1225
7.9033,1582
7.90902,2010
7.91475,1792
7.92047,1077
7.92618,1309
7.93192,1491
7.93763,1449
7.94335,1288
7.94908,1430
7.9548,1096
7.96052,1490
7.96625,1630
7.97197,1217
7.97768,1467
7.98342,1365
7.98913,1255
7.99485,1075
8.00058,1186
8.0063,1864
8.01202,1080
8.01775,1007
8.02347,1423
8.02918,1686
8.0349,1550
8.04063,1445
8.04635,1611
8.05207,1429
8.0578,1535
8.06352,1512
8.06923,1585
8.07497,1025
8.08068,1662
8.0864,1259
8.09213,1278
8.09785,745
8.10357,917
8.1093,1467
8.11502,1203
8.12073,1488
8.12647,1198
8.13218,1384
8.1379,1379
8.14363,1234
8.14935,1150
8.15507,1545
8.16078,1232
8.16652,1926
8.17223,1589
8.17795,1110
8.18368,1428
8.1894,1583
8.19512,1103
8.20085,1383
8.20657,1563
8.21228,1129
8.21802,1372
8.22373,1085
8.22945,1172
8.23518,1623
8.2409,1623
8.24662,1610
8.25235,1308
8.25807,1325
8.26378,939
8.26952,1604
8.27523,1408
8.28095,1373
8.28667,1797
8.2924,1180
8.29812,1426
8.30383,1638
8.30957,1420
8.31528,1492
8.321,1213
8.32673,1243
8.33245,1209
8.33817,1179
8.3439,1650
8.34962,1304
8.35533,2239
8.36107,1664
8.36678,2379
8.3725,2391
8.37823,2508
8.38395,2717
8.38967,1859
8.3954,1531
8.40112,1785
8.40683,1926
8.41255,1273
8.41828,1840
8.424,1563
8.42972,1198
8.43545,1655
8.44117,1113
8.44688,1705
8.45262,1586
8.45833,1570
8.46405,1642
8.46978,1510
8.4755,1585
8.48122,1826
8.48695,1385
8.49267,1307
8.49838,1560
8.50412,1407
8.50983,1136
8.51555,1697
8.52128,1082
8.527,1640
8.53272,909
8.53843,1447
8.54417,1424
8.54988,1254
8.5556,1588
8.56133,2415
8.56705,1907
8.57277,1602
8.5785,961
8.58422,1707
8.58993,1087
8.59567,1123
8.60138,1479
8.6071,1731
8.61283,1344
8.61855,1214
8.62427,1658
8.63,1232
8.63572,1741
8.64143,1344
8.64717,1292
8.65288,1549
8.6586,1941
8.66432,1733
8.67005,1236
8.67577,2127
8.68148,1843
8.68722,1567
8.69293,1405
8.69865,636
8.70438,1207
8.7101,1177
8.71582,1519
8.72155,1101
8.72727,1358
8.73298,1283
8.73872,2782
8.74443,1603
8.75015,1989
8.75588,1188
8.7616,1793
8.76732,1735
8.77305,1357
8.77877,1444
8.78448,1797
8.7902,1654
8.79593,1219
8.80165,1850
8.80737,1461
8.8131,1179
8.81882,1269
8.82453,1661
8.83027,940
8.83598,1453
8.8417,1080
8.84743,1045
8.85315,1280
8.85887,1047
8.8646,1539
8.87032,1546
8.87603,1551
8.88177,914
8.88748,1315
8.8932,973
8.89893,1415
8.90465,1056
8.91037,1261
8.91608,1262
8.92182,1209
8.92753,2459
8.93325,2395
8.93898,2348
8.9447,2548
8.95042,2086
8.95615,2245
8.96187,1329
8.96758,1484
8.97332,1319
8.97903,1270
8.98475,1079
8.99048,1164
8.9962,1063
9.00192,1609
9.00765,1742
9.01337,1375
9.01908,2590
9.02482,1511
9.03053,1199
9.03625,1432
9.04197,1737
9.0477,1374
9.05342,2438
9.05913,1476
9.06487,2772
9.07058,4844
9.0763,11323
9.08203,18372
9.08775,27807
9.09347,29371
9.0992,23930
9.10492,16476
9.11063,9226
9.11637,5694
9.12208,3160
9.1278,2831
9.13353,1622
9.13925,2203
9.14497,1672
9.1507,1424
9.15642,1337
9.16213,1467
9.16787,1825
9.17358,1770
9.1793,1836
9.18502,1235
9.19075,1873
9.19647,1294
9.20218,1277
9.20792,1247
9.21363,1166
9.21935,999
9.22508,1575
9.2308,712
9.23652,1218
9.24225,1328
9.24797,1415
9.25368,1323
9.25942,870
9.26513,1694
9.27085,1653
9.27658,1209
9.2823,1607
9.28802,1509
9.29375,1117
9.29947,1060
9.30518,1143
9.3109,969
9.31663,1156
9.32235,899
9.32807,1457
9.3338,1447
9.33952,1404
9.34523,1250
9.35097,1077
9.35668,1424
9.3624,2310
9.36813,11069
9.37385,28170
9.37957,50974
9.3853,67377
9.39102,67473
9.39673,52145
9.40247,38076
9.40818,25203
9.4139,19633
9.41963,14121
9.42535,11890
9.43107,9592
9.43678,7616
9.44252,7971
9.44823,6270
9.45395,4452
9.45968,4540
9.4654,5073
9.47112,3827
9.47685,4054
9.48257,3189
9.48828,3174
9.49402,2865
9.49973,2773
9.50545,2816
9.51118,2865
9.5169,2908
9.52262,2566
9.52835,2347
9.53407,1492
9.53978,1533
9.54552,1996
9.55123,2402
9.55695,1494
9.56267,1968
9.5684,1154
9.57412,1740
9.57983,1601
9.58557,1270
9.59128,2007
9.597,774
9.60273,1525
9.60845,1292
9.61417,922
9.6199,1282
9.62562,1972
9.63133,1799
9.63707,1894
9.64278,1542
9.6485,1741
9.65423,1787
9.65995,1451
9.66567,1453
9.6714,1319
9.67712,1726
9.68283,1490
9.68855,2042
9.69428,1206
9.7,1690
9.70572,1388
9.71145,1481
9.71717,1298
9.72288,1110
9.72862,1619
9.73433,1605
9.74005,1537
9.74578,1645
9.7515,996
9.75722,1419
9.76295,1362
9.76867,1340
9.77438,1483
9.78012,1329
9.78583,1163
9.79155,1208
9.79728,1664
9.803,1437
9.80872,1656
9.81443,1528
9.82017,1565
9.82588,1935
9.8316,1245
9.83733,1146
9.84305,877
9.84877,1389
9.8545,1551
9.86022,2044
9.86593,1734
9.87167,2927
9.87738,2413
9.8831,2861
9.88883,1974
9.89455,2002
9.90027,2752
9.906,2392
9.91172,1382
9.91743,1755
9.92317,1768
9.92888,2450
9.9346,1689
9.94032,1196
9.94605,1966
9.95177,476
9.95748,1369
9.96322,1380
9.96893,1481
9.97465,1810
9.98038,1401
9.9861,1215
9.99182,1622
9.99755,1829
10.0033,1240
10.009,878
10.0147,1481
10.0204,1480
10.0262,1149
10.0319,1281
10.0376,1707
10.0433,736
10.0491,1524
10.0548,2320
10.0605,1965
10.0662,950
10.0719,1118
10.0777,1100
10.0834,906
10.0891,1413
10.0948,1562
10.1005,1053
10.1063,657
10.112,972
10.1177,1184
10.1234,1247
10.1292,1651
10.1349,1477
10.1406,1350
10.1463,1227
10.152,1440
10.1578,1314
10.1635,1657
10.1692,1327
10.1749,844
10.1807,1163
10.1864,1477
10.1921,2816
10.1978,7321
10.2035,13650
10.2093,13833
10.215,13965
10.2207,11536
10.2264,8454
10.2322,7006
10.2379,5947
10.2436,5169
10.2493,4051
10.255,3549
10.2608,3928
10.2665,4965
10.2722,6157
10.2779,8403
10.2837,8228
10.2894,7795
10.2951,6264
10.3008,5417
10.3065,3274
10.3123,2794
10.318,2175
10.3237,1912
10.3294,1886
10.3351,2213
10.3409,1982
10.3466,2706
10.3523,2062
10.358,2095
10.3638,1396
10.3695,1835
10.3752,2013
10.3809,1550
10.3866,1813
10.3924,1941
10.3981,1828
10.4038,1809
10.4095,1948
10.4153,1856
10.421,1957
10.4267,1660
10.4324,1819
10.4381,1749
10.4439,1948
10.4496,1410
10.4553,1544
10.461,2077
10.4668,1713
10.4725,1652
10.4782,2175
10.4839,1919
10.4896,1468
10.4954,1245
10.5011,1689
10.5068,1607
10.5125,1957
10.5183,2088
10.524,1393
10.5297,1867
10.5354,1865
10.5411,1625
10.5469,2306
10.5526,1542
10.5583,1445
10.564,1836
10.5697,1981
10.5755,2966
10.5812,3736
10.5869,4369
10.5926,4005
10.5984,2173
10.6041,2986
10.6098,3039
10.6155,1616
10.6212,1308
10.627,1491
10.6327,1167
10.6384,1215
10.6441,1463
10.6499,1618
10.6556,1760
10.6613,3684
10.667,3437
10.6727,2952
10.6785,2654
10.6842,2133
10.6899,2073
10.6956,1457
10.7014,1218
10.7071,1090
10.7128,1677
10.7185,1307
10.7242,1701
10.73,595
10.7357,1112
10.7414,1608
10.7471,1426
10.7529,1019
10.7586,1259
10.7643,1385
10.77,1202
10.7757,1471
10.7815,1241
10.7872,1050
10.7929,959
10.7986,1427
10.8044,1244
10.8101,1944
10.8158,1609
10.8215,1273
10.8272,1656
10.833,1835
10.8387,1540
10.8444,2427
10.8501,3535
10.8558,7593
10.8616,13099
10.8673,14063
10.873,11589
10.8787,9150
10.8845,5932
10.8902,3577
10.8959,3548
10.9016,2231
10.9073,1540
10.9131,1937
10.9188,1300
10.9245,1433
10.9302,1405
10.936,2029
10.9417,1865
10.9474,732
10.9531,1391
10.9588,2069
10.9646,2020
10.9703,1942
10.976,2781
10.9817,3353
10.9875,2963
10.9932,2316
10.9989,1228
11.0046,1498
11.0103,1551
11.0161,1711
11.0218,740
11.0275,649
11.0332,1114
11.039,958
11.0447,1028
11.0504,1106
11.0561,758
11.0618,1215
11.0676,1083
11.0733,1245
11.079,1041
11.0847,931
11.0904,1096
11.0962,979
11.1019,1138
11.1076,1400
11.1133,423
11.1191,1241
11.1248,1919
11.1305,4929
11.1362,15159
11.1419,32312
11.1477,47652
11.1534,54659
11.1591,42828
11.1648,25804
11.1706,11980
11.1763,4220
11.182,1409
11.1877,1407
11.1934,715
11.1992,783
11.2049,1606
11.2106,1490
11.2163,1019
11.2221,891
11.2278,1179
11.2335,1436
11.2392,1781
11.2449,1230
11.2507,694
11.2564,1470
11.2621,1913
11.2678,1598
11.2736,980
11.2793,1210
11.285,1105
11.2907,382
11.2964,2038
11.3022,833
11.3079,958
11.3136,1178
11.3193,1096
11.325,999
11.3308,502
11.3365,1243
11.3422,1378
11.3479,1147
11.3537,797
11.3594,1863
11.3651,1541
11.3708,1226
11.3765,857
11.3823,1227
11.388,1296
11.3937,1432
11.3994,1282
11.4052,1000
11.4109,844
11.4166,1457
11.4223,1152
11.428,1326
11.4338,1610
11.4395,1235
11.4452,1465
11.4509,2288
11.4567,3065
11.4624,2429
11.4681,2216
11.4738,2450
11.4795,2123
11.4853,1404
11.491,1329
11.4967,1296
11.5024,1606
11.5082,1084
11.5139,842
11.5196,966
11.5253,685
11.531,1208
11.5368,774
11.5425,598
11.5482,1670
11.5539,1570
11.5597,1339
11.5654,1679
11.5711,1240
11.5768,1455
11.5825,748
11.5883,1175
11.594,1064
11.5997,765
11.6054,792
11.6111,899
11.6169,874
11.6226,1265
11.6283,1335
11.634,1355
11.6398,870
11.6455,1063
11.6512,893
11.6569,921
11.6626,1391
11.6684,1619
11.6741,1102
11.6798,1403
11.6855,1266
11.6913,1371
11.697,859
11.7027,1004
11.7084,1115
11.7141,934
11.7199,844
11.7256,1179
11.7313,908
11.737,1415
11.7428,1133
11.7485,1289
11.7542,1398
11.7599,1333
11.7656,988
11.7714,1539
11.7771,727
11.7828,1709
11.7885,1539
11.7943,1255
11.8,1539
11.8057,1070
11.8114,779
11.8171,962
11.8229,470
11.8286,1122
11.8343,736
11.84,964
11.8457,894
11.8515,1230
11.8572,1057
11.8629,760
11.8686,1306
11.8744,1470
11.8801,987
11.8858,818
11.8915,818
11.8972,957
11.903,1192
11.9087,1183
11.9144,1438
11.9201,1104
11.9259,1192
11.9316,324
11.9373,906
11.943,969
11.9487,1429
11.9545,726
11.9602,1072
11.9659,1149
11.9716,920
11.9774,681
11.9831,814
11.9888,864
11.9945,297
12.0002,754
12.006,924
12.0117,322
12.0174,1338
12.0231,935
12.0289,912
12.0346,811
12.0403,1149
12.046,1152
12.0517,851
12.0575,914
12.0632,725
12.0689,764
12.0746,950
12.0803,1099
12.0861,1339
12.0918,956
12.0975,786
12.1032,1159
12.109,457
12.1147,711
12.1204,944
12.1261,570
12.1318,1001
12.1376,626
12.1433,1460
12.149,1813
12.1547,2245
12.1605,3169
12.1662,2787
12.1719,2509
12.1776,1344
12.1833,1722
12.1891,1533
12.1948,850
12.2005,645
12.2062,1110
12.212,719
12.2177,1522
12.2234,1290
12.2291,758
12.2348,983
12.2406,968
12.2463,720
12.252,1656
12.2577,985
12.2635,629
12.2692,706
12.2749,1070
12.2806,1139
12.2863,715
12.2921,864
12.2978,700
12.3035,344
12.3092,1056
12.315,550
12.3207,545
12.3264,1228
12.3321,875
12.3378,672
12.3436,783
12.3493,670
12.355,439
12.3607,745
12.3664,731
12.3722,781
12.3779,980
12.3836,907
12.3893,786
12.3951,855
12.4008,1387
12.4065,956
12.4122,1234
12.4179,756
12.4237,2013
12.4294,9457
12.4351,27726
12.4408,44697
12.4466,53729
12.4523,43941
12.458,30933
12.4637,19705
12.4694,13956
12.4752,9539
12.4809,7740
12.4866,6564
12.4923,6573
12.4981,4429
12.5038,3839
12.5095,4191
12.5152,3848
12.5209,3149
12.5267,2884
12.5324,2699
12.5381,1687
12.5438,2456
12.5496,1637
12.5553,2020
12.561,2192
12.5667,2420
12.5724,1743
12.5782,2835
12.5839,2617
12.5896,2890
12.5953,2259
12.601,2917
12.6068,2327
12.6125,3067
12.6182,2223
12.6239,2755
12.6297,3134
12.6354,2616
12.6411,2664
12.6468,2172
12.6525,2674
12.6583,3712
12.664,8506
12.6697,11418
12.6754,15143
12.6812,13143
12.6869,6792
12.6926,4173
12.6983,2919
12.704,2428
12.7098,5056
12.7155,8258
12.7212,12785
12.7269,14336
12.7327,13584
12.7384,7798
12.7441,5107
12.7498,5200
12.7555,5811
12.7613,7559
12.767,7121
12.7727,3336
12.7784,2624
12.7842,2001
12.7899,2197
12.7956,1372
12.8013,1800
12.807,1418
12.8128,1501
12.8185,1455
12.8242,1580
12.8299,878
12.8357,1211
12.8414,1577
12.8471,1846
12.8528,2638
12.8585,3089
12.8643,2576
12.87,1590
12.8757,1367
12.8814,1388
12.8871,1774
12.8929,1607
12.8986,865
12.9043,1593
12.91,1671
12.9158,1835
12.9215,776
12.9272,805
12.9329,889
12.9386,927
12.9444,2293
12.9501,5267
12.9558,13885
12.9615,26140
12.9673,39462
12.973,39723
12.9787,29511
12.9844,16659
12.9901,7984
12.9959,3175
13.0016,1615
13.0073,1163
13.013,975
13.0188,713
13.0245,1674
13.0302,640
13.0359,1356
13.0416,1505
13.0474,2595
13.0531,6738
13.0588,10473
13.0645,10337
13.0703,8121
13.076,3468
13.0817,2494
13.0874,1362
13.0931,831
13.0989,1294
13.1046,1930
13.1103,4520
13.116,8294
13.1217,13146
13.1275,16387
13.1332,17456
13.1389,17795
13.1446,14161
13.1504,8278
13.1561,5179
13.1618,3873
13.1675,3130
13.1732,3975
13.179,3586
13.1847,2984
13.1904,1714
13.1961,1885
13.2019,4070
13.2076,8942
13.2133,14332
13.219,16385
13.2247,11792
13.2305,7420
13.2362,3685
13.2419,3606
13.2476,3392
13.2534,1803
13.2591,1892
13.2648,1678
13.2705,1587
13.2762,861
13.282,740
13.2877,1148
13.2934,484
13.2991,1006
13.3049,775
13.3106,975
13.3163,968
13.322,827
13.3277,588
13.3335,626
13.3392,1198
13.3449,653
13.3506,1323
13.3563,795
13.3621,642
13.3678,983
13.3735,955
13.3792,1317
13.385,949
13.3907,853
13.3964,516
13.4021,1350
13.4078,1707
13.4136,1011
13.4193,502
13.425,661
13.4307,986
13.4365,1056
13.4422,618
13.4479,815
13.4536,919
13.4593,770
13.4651,391
13.4708,682
13.4765,353
13.4822,1162
13.488,753
13.4937,821
13.4994,608
13.5051,890
13.5108,1155
13.5166,915
13.5223,1091
13.528,587
13.5337,703
13.5395,701
13.5452,542
13.5509,1133
13.5566,914
13.5623,877
13.5681,805
13.5738,619
13.5795,1115
13.5852,1292
13.591,813
13.5967,669
13.6024,931
13.6081,642
13.6138,826
13.6196,988
13.6253,1027
13.631,744
13.6367,1289
13.6424,1312
13.6482,2120
13.6539,2772
13.6596,2016
13.6653,1924
13.6711,1354
13.6768,491
13.6825,589
13.6882,1878
13.6939,611
13.6997,1033
13.7054,484
13.7111,1034
13.7168,930
13.7226,617
13.7283,938
13.734,1151
13.7397,1413
13.7454,1509
13.7512,1104
13.7569,772
13.7626,1165
13.7683,752
13.7741,1175
13.7798,1120
13.7855,760
13.7912,961
13.7969,1386
13.8027,761
13.8084,1304
13.8141,1003
13.8198,897
13.8256,1340
13.8313,1159
13.837,1475
13.8427,976
13.8484,1319
13.8542,988
13.8599,885
13.8656,1263
13.8713,1033
13.877,1068
13.8828,1312
13.8885,654
13.8942,1682
13.8999,1679
13.9057,989
13.9114,1685
13.9171,687
13.9228,929
13.9285,1399
13.9343,855
13.94,1398
13.9457,1000
13.9514,718
13.9572,529
13.9629,1153
13.9686,636
13.9743,821
13.98,968
13.9858,1124
13.9915,457
13.9972,457
14.0029,1224
14.0087,384
14.0144,607
14.0201,1109
14.0258,1409
14.0315,1168
14.0373,1216
14.043,1126
14.0487,1278
14.0544,1152
14.0602,1081
14.0659,1251
14.0716,1169
14.0773,688
14.083,721
14.0888,533
14.0945,636
14.1002,659
14.1059,1270
14.1116,766
14.1174,798
14.1231,902
14.1288,703
14.1345,441
14.1403,705
14.146,991
14.1517,951
14.1574,1356
14.1631,1507
14.1689,828
14.1746,1184
14.1803,1237
14.186,936
14.1918,656
14.1975,901
14.2032,786
14.2089,794
14.2146,496
14.2204,702
14.2261,537
14.2318,1005
14.2375,1352
14.2433,1302
14.249,871
14.2547,1542
14.2604,422
14.2661,869
14.2719,690
14.2776,783
14.2833,1003
14.289,1474
14.2948,1303
14.3005,1335
14.3062,817
14.3119,597
14.3176,793
14.3234,979
14.3291,1024
14.3348,916
14.3405,1001
14.3463,295
14.352,821
14.3577,1195
14.3634,1728
14.3691,1232
14.3749,563
14.3806,541
14.3863,732
14.392,1102
14.3977,893
14.4035,607
14.4092,841
14.4149,328
14.4206,1304
14.4264,965
14.4321,1308
14.4378,600
14.4435,679
14.4492,1026
14.455,822
14.4607,391
14.4664,646
14.4721,730
14.4779,737
14.4836,601
14.4893,1530
14.495,918
14.5007,868
14.5065,1594
14.5122,3194
14.5179,6585
14.5236,12530
14.5294,20054
14.5351,23198
14.5408,18675
14.5465,11897
14.5522,6484
14.558,3651
14.5637,2888
14.5694,1306
14.5751,1803
14.5809,718
14.5866,1101
14.5923,1119
14.598,769
14.6037,817
14.6095,1496
14.6152,1356
14.6209,1034
14.6266,1058
14.6323,958
14.6381,698
14.6438,345
14.6495,1046
14.6552,405
14.661,1676
14.6667,1565
14.6724,1131
14.6781,623
14.6838,1480
14.6896,578
14.6953,1272
14.701,813
14.7067,632
14.7125,574
14.7182,413
14.7239,738
14.7296,872
14.7353,877
14.7411,716
14.7468,1495
14.7525,562
14.7582,779
14.764,871
14.7697,674
14.7754,847
14.7811,992
14.7868,802
14.7926,1113
14.7983,1017
14.804,1161
14.8097,514
14.8155,590
14.8212,897
14.8269,784
14.8326,569
14.8383,1229
14.8441,848
14.8498,1128
14.8555,483
14.8612,913
14.8669,1181
14.8727,938
14.8784,1253
14.8841,676
14.8898,981
14.8956,715
14.9013,813
14.907,853
14.9127,1228
14.9184,1029
14.9242,872
14.9299,1643
14.9356,1440
14.9413,754
14.9471,1169
14.9528,543
14.9585,698
14.9642,824
14.9699,838
14.9757,577
14.9814,739
14.9871,540
14.9928,822
14.9986,871
15.0043,932
15.01,882
15.0157,522
15.0214,706
15.0272,906
15.0329,1196
15.0386,1140
15.0443,637
15.0501,862
15.0558,1577
15.0615,614
15.0672,1260
15.0729,908
15.0787,892
15.0844,1198
15.0901,472
15.0958,1008
15.1016,901
15.1073,1136
15.113,645
15.1187,806
15.1244,940
15.1302,1102
15.1359,647
15.1416,1154
15.1473,828
15.153,885
15.1588,1012
15.1645,754
15.1702,852
15.1759,839
15.1817,353
15.1874,1054
15.1931,640
15.1988,1200
15.2045,1092
15.2103,685
15.216,612
15.2217,654
15.2274,615
15.2332,366
15.2389,603
15.2446,794
15.2503,618
15.256,1392
15.2618,1339
15.2675,1574
15.2732,1307
15.2789,1935
15.2847,1433
15.2904,365
15.2961,892
15.3018,689
15.3075,586
15.3133,867
15.319,920
15.3247,1006
15.3304,592
15.3362,1081
15.3419,1350
15.3476,349
15.3533,326
15.359,905
15.3648,747
15.3705,543
15.3762,1158
15.3819,584
15.3876,556
15.3934,819
15.3991,932
15.4048,717
15.4105,874
15.4163,788
15.422,870
15.4277,736
15.4334,877
15.4391,470
15.4449,639
15.4506,903
15.4563,717
15.462,784
15.4678,597
15.4735,881
15.4792,460
15.4849,678
15.4906,687
15.4964,975
15.5021,900
15.5078,948
15.5135,809
15.5193,1095
15.525,999
15.5307,1179
15.5364,789
15.5421,738
15.5479,1198
15.5536,816
15.5593,942
15.565,1148
15.5708,429
15.5765,919
15.5822,1206
15.5879,715
15.5936,995
15.5994,606
15.6051,1702
15.6108,1555
15.6165,1322
15.6222,1731
15.628,2135
15.6337,2091
15.6394,1527
15.6451,1967
15.6509,1271
15.6566,1354
15.6623,1399
15.668,1075
15.6737,822
15.6795,732
15.6852,1388
15.6909,1368
15.6966,1179
15.7024,906
15.7081,1107
15.7138,1665
15.7195,1855
15.7252,2636
15.731,1966
15.7367,2695
15.7424,3310
15.7481,3247
15.7539,1763
15.7596,3249
15.7653,3657
15.771,3548
15.7767,3757
15.7825,3192
15.7882,2675
15.7939,2442
15.7996,2306
15.8054,2330
15.8111,1585
15.8168,2785
15.8225,1771
15.8282,1905
15.834,2231
15.8397,2091
15.8454,2273
15.8511,1585
15.8569,2527
15.8626,1355
15.8683,1331
15.874,1087
15.8797,1560
15.8855,1840
15.8912,2093
15.8969,2055
15.9026,2517
15.9083,1510
15.9141,2754
15.9198,4418
15.9255,6763
15.9312,11493
15.937,11735
15.9427,10963
15.9484,8511
15.9541,5024
15.9598,4186
15.9656,3449
15.9713,3496
15.977,3461
15.9827,1813
15.9885,1791
15.9942,1979
15.9999,1662
16.0056,1684
16.0113,1358
16.0171,2167
16.0228,2314
16.0285,1871
16.0342,1309
16.04,2482
16.0457,1117
16.0514,2083
16.0571,1570
16.0628,1557
16.0685,1423
16.0743,1568
16.08,1674
16.0857,1221
16.0914,1085
16.0972,1071
16.1029,693
16.1086,800
16.1143,1326
16.12,1517
16.1258,2063
16.1315,1078
16.1372,1527
16.1429,1446
16.1487,1423
16.1544,1254
16.1601,1069
16.1658,1047
16.1716,700
16.1773,1065
16.183,1510
16.1887,1252
16.1944,697
16.2002,673
16.2059,937
16.2116,1796
16.2173,1526
16.2231,1418
16.2288,892
16.2345,1309
16.2402,1305
16.2459,922
16.2517,927
16.2574,1486
16.2631,1042
16.2688,1381
16.2746,2125
16.2803,1960
16.286,1131
16.2917,1583
16.2974,2635
16.3031,1838
16.3089,1512
16.3146,1808
16.3203,1802
16.326,2123
16.3318,1713
16.3375,2063
16.3432,1744
16.3489,1309
16.3546,1526
16.3604,1077
16.3661,1081
16.3718,893
16.3775,1097
16.3833,1751
16.389,1182
16.3947,1286
16.4004,1347
16.4062,1991
16.4119,1189
16.4176,1334
16.4233,1859
16.429,1758
16.4348,1563
16.4405,1344
16.4462,2134
16.4519,1071
16.4577,1143
16.4634,1542
16.4691,1353
16.4748,1044
16.4805,1445
16.4863,1202
16.492,1497
16.4977,1850
16.5034,1355
16.5092,1202
16.5149,1066
16.5206,1293
16.5263,1868
16.532,1063
16.5377,1436
16.5435,1038
16.5492,1302
16.5549,934
16.5606,1369
16.5664,1394
16.5721,863
16.5778,1645
16.5835,790
16.5893,1318
16.595,1055
16.6007,1594
16.6064,1097
16.6122,760
16.6179,1072
16.6236,1379
16.6293,1098
16.635,1069
16.6408,1672
16.6465,1066
16.6522,910
16.6579,750
16.6636,1458
16.6694,1747
16.6751,1601
16.6808,1279
16.6865,1395
16.6923,974
16.698,1255
16.7037,1647
16.7094,913
16.7151,1707
16.7209,1828
16.7266,1405
16.7323,1263
16.738,924
16.7437,1613
16.7495,1135
16.7552,1558
16.7609,1629
16.7666,1438
16.7723,1872
16.7781,1841
16.7838,1534
16.7895,1256
16.7952,1107
16.801,1256
16.8067,1244
16.8124,1053
16.8181,1726
16.8239,1503
16.8296,2765
16.8353,3235
16.841,2963
16.8468,1686
16.8525,1263
16.8582,1249
16.8639,1533
16.8696,1673
16.8754,1925
16.8811,1263
16.8868,1059
16.8925,1762
16.8982,969
16.904,1067
16.9097,1015
16.9154,1497
16.9211,1438
16.9269,2022
16.9326,1658
16.9383,1305
16.944,1084
16.9497,857
16.9555,780
16.9612,1793
16.9669,1307
16.9726,1240
16.9783,1388
16.9841,784
16.9898,1682
16.9955,1491
17.0012,1632
17.007,1254
17.0127,1494
17.0184,2430
17.0241,1552
17.0299,1155
17.0356,1580
17.0413,1428
17.047,1266
17.0527,832
17.0585,1788
17.0642,899
17.0699,1723
17.0756,1251
17.0814,1011
17.0871,1925
17.0928,2472
17.0985,1257
17.1042,1661
17.11,1342
17.1157,1751
17.1214,1712
17.1271,1565
17.1329,2024
17.1386,2112
17.1443,2306
17.15,1090
17.1557,1904
17.1614,2648
17.1672,3336
17.1729,3355
17.1786,3317
17.1843,4160
17.1901,3631
17.1958,3784
17.2015,6553
17.2072,7584
17.2129,9103
17.2187,9382
17.2244,9365
17.2301,7081
17.2358,4941
17.2416,3368
17.2473,3377
17.253,2088
17.2587,3072
17.2645,2623
17.2702,2741
17.2759,2130
17.2816,1467
17.2873,2298
17.2931,3203
17.2988,2173
17.3045,2222
17.3102,2034
17.316,1358
17.3217,2369
17.3274,2236
17.3331,2113
17.3388,2101
17.3446,2191
17.3503,2143
17.356,2100
17.3617,2404
17.3675,2604
17.3732,2587
17.3789,1588
17.3846,2073
17.3903,2535
17.396,1823
17.4018,2951
17.4075,1686
17.4132,2086
17.4189,1396
17.4247,2317
17.4304,1897
17.4361,1552
17.4418,2083
17.4476,1699
17.4533,1074
17.459,1855
17.4647,1238
17.4704,1955
17.4762,2864
17.4819,1801
17.4876,1891
17.4933,2377
17.4991,2186
17.5048,2586
17.5105,1846
17.5162,2594
17.5219,1384
17.5277,2428
17.5334,2249
17.5391,2629
17.5448,1662
17.5506,1958
17.5563,1680
17.562,2105
17.5677,3040
17.5734,2126
17.5792,3523
17.5849,3506
17.5906,3792
17.5963,3044
17.6021,2322
17.6078,2410
17.6135,1574
17.6192,2388
17.6249,2110
17.6306,2567
17.6364,2476
17.6421,1803
17.6478,2010
17.6535,1838
17.6593,2058
17.665,2212
17.6707,2386
17.6764,1754
17.6822,2264
17.6879,2174
17.6936,2340
17.6993,2772
17.705,2106
17.7108,2405
17.7165,2818
17.7222,2723
17.7279,2594
17.7337,2562
17.7394,3000
17.7451,1727
17.7508,1664
17.7565,2675
17.7623,2815
17.768,3112
17.7737,2332
17.7794,2333
17.7852,2613
17.7909,2395
17.7966,2149
17.8023,1862
17.808,2185
17.8138,2270
17.8195,2020
17.8252,2629
17.8309,2269
17.8367,2157
17.8424,2556
17.8481,3183
17.8538,3136
17.8595,2718
17.8653,2044
17.871,3055
17.8767,2323
17.8824,2191
17.8882,2595
17.8939,2391
17.8996,2503
17.9053,2454
17.911,2077
17.9168,2581
17.9225,4097
17.9282,5442
17.9339,4941
17.9396,4971
17.9454,3394
17.9511,2667
17.9568,2460
17.9625,2246
17.9683,2456
17.974,3009
17.9797,3022
17.9854,2266
17.9911,2026
17.9969,3194
18.0026,2364
18.0083,2784
18.014,3224
18.0198,2339
18.0255,2097
18.0312,1696
18.0369,2544
18.0426,2315
18.0483,2175
18.0541,2321
18.0598,2686
18.0655,2776
18.0712,2806
18.077,3407
18.0827,2340
18.0884,2201
18.0941,2281
18.0999,2553
18.1056,2888
18.1113,2266
18.117,2555
18.1228,3039
18.1285,1929
18.1342,2211
18.1399,2370
18.1456,2765
18.1514,2615
18.1571,1950
18.1628,2986
18.1685,2744
18.1742,2082
18.18,2751
18.1857,3131
18.1914,2888
18.1971,2562
18.2029,2551
18.2086,2825
18.2143,3001
18.22,2717
18.2257,2630
18.2315,2287
18.2372,2369
18.2429,3706
18.2486,3051
18.2544,2804
18.2601,2551
18.2658,2351
18.2715,3061
18.2772,3412
18.283,2191
18.2887,2637
18.2944,2283
18.3001,2876
18.3059,3795
18.3116,3128
18.3173,2115
18.323,2762
18.3287,3569
18.3345,2659
18.3402,2991
18.3459,3182
18.3516,4106
18.3574,4967
18.3631,6070
18.3688,11268
18.3745,12520
18.3802,14104
18.386,11157
18.3917,8509
18.3974,7413
18.4031,4891
18.4088,5923
18.4146,3993
18.4203,4346
18.426,4112
18.4317,4136
18.4375,4199
18.4432,4605
18.4489,3978
18.4546,3487
18.4603,3956
18.4661,4140
18.4718,3826
18.4775,3489
18.4832,4064
18.489,2739
18.4947,3601
18.5004,3388
18.5061,3137
18.5118,4147
18.5176,3467
18.5233,3300
18.529,3656
18.5347,4619
18.5405,3086
18.5462,3522
18.5519,4057
18.5576,4381
18.5633,3381
18.5691,3792
18.5748,4209
18.5805,2999
18.5862,4750
18.592,4477
18.5977,4467
18.6034,3627
18.6091,3987
18.6148,3745
18.6206,3479
18.6263,3891
18.632,3402
18.6377,3604
18.6435,3074
18.6492,3815
18.6549,3006
18.6606,3585
18.6663,3166
18.6721,3650
18.6778,3838
18.6835,3288
18.6892,4538
18.6949,5770
18.7007,6022
18.7064,5181
18.7121,6391
18.7178,5573
18.7235,5959
18.7293,5410
18.735,6412
18.7407,7653
18.7464,14686
18.7522,23409
18.7579,32985
18.7636,36039
18.7693,29226
18.7751,18608
18.7808,13633
18.7865,10439
18.7922,8947
18.7979,6797
18.8037,7647
18.8094,7010
18.8151,6678
18.8208,6273
18.8266,5983
18.8323,5756
18.838,6298
18.8437,6130
18.8494,7633
18.8552,7819
18.8609,7101
18.8666,6949
18.8723,7280
18.8781,6728
18.8838,6708
18.8895,6483
18.8952,5441
18.9009,6408
18.9067,4567
18.9124,5216
18.9181,5251
18.9238,5432
18.9295,7044
18.9353,6141
18.941,7642
18.9467,6836
18.9524,7286
18.9582,7048
18.9639,5243
18.9696,4834
18.9753,5686
18.981,4609
18.9868,5135
18.9925,4879
18.9982,5081
19.0039,5853
19.0097,6649
19.0154,5480
19.0211,6576
19.0268,6873
19.0325,8421
19.0383,9765
19.044,12564
19.0497,13752
19.0554,14639
19.0612,12602
19.0669,12744
19.0726,12021
19.0783,9477
19.084,7796
19.0898,8309
19.0955,7943
19.1012,9022
19.1069,11446
19.1127,9504
19.1184,11035
19.1241,13013
19.1298,13838
19.1355,14328
19.1412,13196
19.147,12477
19.1527,9040
19.1584,9349
19.1641,7123
19.1699,7568
19.1756,4410
19.1813,6957
19.187,6087
19.1928,6626
19.1985,6079
19.2042,6632
19.2099,6108
19.2156,7066
19.2214,5910
19.2271,5565
19.2328,5441
19.2385,5254
19.2443,5564
19.25,6078
19.2557,6083
19.2614,6123
19.2671,5645
19.2729,7128
19.2786,6032
19.2843,6803
19.29,5312
19.2958,6649
19.3015,6570
19.3072,5605
19.3129,7168
19.3186,6333
19.3244,6743
19.3301,6886
19.3358,8347
19.3415,8663
19.3473,6892
19.353,7706
19.3587,6186
19.3644,6562
19.3701,6952
19.3759,6038
19.3816,7567
19.3873,6891
19.393,6552
19.3988,6851
19.4045,6776
19.4102,8204
19.4159,7057
19.4216,7559
19.4274,7557
19.4331,9160
19.4388,10997
19.4445,15507
19.4502,19036
19.456,19348
19.4617,15882
19.4674,13951
19.4731,11627
19.4789,9165
19.4846,8029
19.4903,8099
19.496,7822
19.5017,7747
19.5075,6393
19.5132,7390
19.5189,7798
19.5246,7755
19.5304,6847
19.5361,7161
19.5418,9153
19.5475,8198
19.5532,9323
19.5589,8301
19.5647,9099
19.5704,8294
19.5761,7305
19.5818,8170
19.5876,9226
19.5933,6253
19.599,8394
19.6047,7381
19.6105,7757
19.6162,7757
19.6219,7705
19.6276,8583
19.6334,10718
19.6391,9579
19.6448,7902
19.6505,8996
19.6562,8286
19.662,8787
19.6677,8568
19.6734,8494
19.6791,8339
19.6848,9091
19.6906,7239
19.6963,8771
19.702,9495
19.7077,7482
19.7135,9100
19.7192,8040
19.7249,9177
19.7306,7615
19.7363,9704
19.7421,9896
19.7478,7074
19.7535,7792
19.7592,9144
19.765,9027
19.7707,8754
19.7764,8680
19.7821,8681
19.7878,8760
19.7936,7859
19.7993,7451
19.805,8408
19.8107,7928
19.8165,8284
19.8222,9052
19.8279,8706
19.8336,9776
19.8393,7786
19.8451,9757
19.8508,8492
19.8565,9338
19.8622,8318
19.868,9284
19.8737,9038
19.8794,9251
19.8851,11821
19.8908,11385
19.8966,10017
19.9023,11870
19.908,8704
19.9137,10071
19.9194,9159
19.9252,9565
19.9309,10157
19.9366,9276
19.9423,8978
19.9481,9489
19.9538,9377
19.9595,9314
19.9652,9502
19.9709,9488
19.9767,9781
19.9824,10033
19.9881,9700
19.9938,10021
19.9995,8885
20.0053,10031
20.011,9612
20.0167,10227
20.0224,9663
20.0282,9688
20.0339,10155
20.0396,9556
20.0453,10601
20.0511,9806
20.0568,9876
20.0625,10848
20.0682,10059
20.0739,9891
20.0797,10688
20.0854,8778
20.0911,10165
20.0968,10023
20.1026,10604
20.1083,9526
20.114,9310
20.1197,10468
20.1254,9015
20.1312,10487
20.1369,10043
20.1426,11296
20.1483,9537
20.1541,10745
20.1598,10359
20.1655,10845
20.1712,9108
20.1769,11776
20.1827,11685
20.1884,10596
20.1941,11522
20.1998,9067
20.2055,11433
20.2113,10133
20.217,11358
20.2227,10108
20.2284,11401
20.2342,10522
20.2399,10916
20.2456,11498
20.2513,10851
20.257,9741
20.2628,11086
20.2685,9277
20.2742,11099
20.2799,10353
20.2857,12074
20.2914,10842
20.2971,11889
20.3028,11536
20.3085,11956
20.3143,11223
20.32,10973
20.3257,11798
20.3314,12399
20.3372,12111
20.3429,11628
20.3486,11107
20.3543,11876
20.36,11632
20.3658,10889
20.3715,12464
20.3772,11395
20.3829,11599
20.3887,10808
20.3944,12623
20.4001,12119
20.4058,11268
20.4115,12707
20.4172,12058
20.423,12144
20.4287,11637
20.4344,11760
20.4401,13804
20.4459,14973
20.4516,18461
20.4573,21018
20.463,21399
20.4688,19578
20.4745,17065
20.4802,16082
20.4859,14121
20.4916,13867
20.4974,12955
20.5031,12544
20.5088,13656
20.5145,12686
20.5203,12981
20.526,14136
20.5317,14090
20.5374,12464
20.5431,14175
20.5489,13437
20.5546,12695
20.5603,13491
20.566,13940
20.5718,13965
20.5775,13625
20.5832,14735
20.5889,13774
20.5946,13602
20.6004,13924
20.6061,13182
20.6118,14047
20.6175,12932
20.6233,13909
20.629,14591
20.6347,14247
20.6404,13337
20.6461,15250
20.6519,13998
20.6576,14200
20.6633,14618
20.669,13239
20.6748,13863
20.6805,13385
20.6862,15098
20.6919,15322
20.6976,14518
20.7034,14500
20.7091,14385
20.7148,15282
20.7205,15235
20.7262,15701
20.732,15837
20.7377,15996
20.7434,14932
20.7491,15521
20.7549,14869
20.7606,14050
20.7663,15088
20.772,16824
20.7777,16464
20.7835,15838
20.7892,15998
20.7949,14772
20.8006,16221
20.8064,16091
20.8121,15376
20.8178,16357
20.8235,15785
20.8292,15540
20.835,17225
20.8407,16476
20.8464,16356
20.8521,16183
20.8579,16850
20.8636,18301
20.8693,16568
20.875,17908
20.8807,17795
20.8865,16850
20.8922,17747
20.8979,17627
20.9036,17465
20.9094,17275
20.9151,17478
20.9208,18360
20.9265,17894
20.9322,17275
20.938,17160
20.9437,17985
20.9494,17975
20.9551,17318
20.9608,18786
20.9666,18343
20.9723,18814
20.978,17675
20.9837,18149
20.9895,18317
20.9952,18387
21.0009,19251
21.0066,20266
21.0123,19670
21.0181,19974
21.0238,20732
21.0295,19795
21.0352,17677
21.041,18428
21.0467,18812
21.0524,17652
21.0581,19757
21.0638,19435
21.0696,18569
21.0753,20439
21.081,21480
21.0867,17754
21.0924,20379
21.0982,19198
21.1039,19983
21.1096,19769
21.1153,19651
21.1211,20450
21.1268,18486
21.1325,19118
21.1382,18694
21.144,20415
21.1497,20827
21.1554,22225
21.1611,21419
21.1668,23947
21.1726,25205
21.1783,24077
21.184,22402
21.1897,22808
21.1954,20335
21.2012,22723
21.2069,21918
21.2126,21605
21.2183,21416
21.2241,21982
21.2298,20698
21.2355,20769
21.2412,22775
21.2469,21587
21.2527,23489
21.2584,21566
21.2641,24893
21.2698,23373
21.2756,24559
21.2813,22878
21.287,23253
21.2927,24759
21.2984,23363
21.3042,22958
21.3099,21904
21.3156,22718
21.3213,24278
21.3271,23929
21.3328,23105
21.3385,23795
21.3442,22865
21.3499,23051
21.3557,24234
21.3614,23437
21.3671,26209
21.3728,24741
21.3786,24073
21.3843,24495
21.39,25152
21.3957,30040
21.4014,31044
21.4072,35490
21.4129,30729
21.4186,28527
21.4243,26085
21.4301,24812
21.4358,23111
21.4415,24547
21.4472,23644
21.4529,25563
21.4587,24512
21.4644,25355
21.4701,26500
21.4758,25164
21.4815,23705
21.4873,24309
21.493,26276
21.4987,26119
21.5044,25272
21.5101,24233
21.5159,25182
21.5216,25360
21.5273,26271
21.533,26163
21.5388,25618
21.5445,26557
21.5502,26405
21.5559,27461
21.5617,28350
21.5674,27838
21.5731,27542
21.5788,27010
21.5845,24993
21.5903,25166
21.596,25274
21.6017,28177
21.6074,26681
21.6132,26891
21.6189,27061
21.6246,27382
21.6303,26756
21.636,27278
21.6418,27021
21.6475,27631
21.6532,27368
21.6589,29885
21.6647,29527
21.6704,28055
21.6761,28088
21.6818,29603
21.6875,28902
21.6933,29991
21.699,30321
21.7047,27973
21.7104,28544
21.7161,29085
21.7219,29915
21.7276,28808
21.7333,30112
21.739,28233
21.7448,28727
21.7505,29980
21.7562,31206
21.7619,30427
21.7676,29608
21.7734,31145
21.7791,30450
21.7848,29150
21.7905,29482
21.7963,28495
21.802,30451
21.8077,31468
21.8134,30086
21.8191,31225
21.8249,30061
21.8306,31674
21.8363,30904
21.842,30339
21.8478,31334
21.8535,32784
21.8592,32107
21.8649,31608
21.8706,32125
21.8764,31156
21.8821,32992
21.8878,33565
21.8935,32810
21.8993,34260
21.905,31558
21.9107,33324
21.9164,34573
21.9221,32157
21.9278,31407
21.9336,32893
21.9393,33498
21.945,32682
21.9507,33492
21.9565,33249
21.9622,34606
21.9679,33490
21.9736,32803
21.9794,32528
21.9851,32918
21.9908,32859
21.9965,33132
22.0022,36247
22.008,34762
22.0137,33945
22.0194,33838
22.0251,33858
22.0309,34051
22.0366,34395
22.0423,35850
22.048,44820
22.0537,65693
22.0595,100665
22.0652,146530
22.0709,164347
22.0766,139730
22.0824,100705
22.0881,75262
22.0938,61163
22.0995,50341
22.1052,48040
22.111,45495
22.1167,43368
22.1224,44908
22.1281,43134
22.1339,41261
22.1396,44832
22.1453,44357
22.151,43814
22.1567,41728
22.1625,40397
22.1682,42336
22.1739,43046
22.1796,42531
22.1854,40547
22.1911,42320
22.1968,42336
22.2025,41539
22.2082,40036
22.214,40021
22.2197,41902
22.2254,39606
22.2311,40259
22.2368,41291
22.2426,42560
22.2483,40577
22.254,41103
22.2597,41190
22.2655,41780
22.2712,41118
22.2769,44870
22.2826,47202
22.2883,46706
22.2941,49402
22.2998,48156
22.3055,48776
22.3112,44349
22.317,43836
22.3227,44364
22.3284,43264
22.3341,41482
22.3398,45037
22.3455,41131
22.3513,44652
22.357,43493
22.3627,42717
22.3685,42454
22.3742,42875
22.3799,41841
22.3856,43965
22.3913,44839
22.3971,45163
22.4028,43141
22.4085,43104
22.4142,42945
22.42,44254
22.4257,44270
22.4314,43491
22.4371,45111
22.4428,45154
22.4486,46834
22.4543,45317
22.46,44256
22.4657,45587
22.4714,43798
22.4772,47196
22.4829,45414
22.4886,46163
22.4943,45424
22.5001,46441
22.5058,43842
22.5115,45243
22.5172,46916
22.5229,43908
22.5287,48238
22.5344,47229
22.5401,47072
22.5458,46447
22.5516,46810
22.5573,44921
22.563,47050
22.5687,46073
22.5744,46354
22.5802,47719
22.5859,45418
22.5916,45206
22.5973,48373
22.6031,46804
22.6088,47233
22.6145,46922
22.6202,45864
22.6259,47107
22.6317,47653
22.6374,50058
22.6431,44359
22.6488,49456
22.6546,49300
22.6603,50789
22.666,48707
22.6717,50767
22.6774,48530
22.6832,49863
22.6889,46971
22.6946,47689
22.7003,52110
22.706,48686
22.7118,50037
22.7175,48814
22.7232,49035
22.7289,50194
22.7347,50584
22.7404,50108
22.7461,50684
22.7518,50833
22.7575,50331
22.7633,49392
22.769,50584
22.7747,49361
22.7804,47970
22.7862,51440
22.7919,51665
22.7976,52280
22.8033,52316
22.809,50756
22.8148,51813
22.8205,50709
22.8262,49859
22.8319,50859
22.8377,52440
22.8434,52374
22.8491,51891
22.8548,52469
22.8605,50058
22.8663,51033
22.872,54030
22.8777,55714
22.8834,54645
22.8892,53058
22.8949,53290
22.9006,52920
22.9063,50681
22.912,56892
22.9178,52929
22.9235,55910
22.9292,50528
22.9349,52854
22.9407,53968
22.9464,55165
22.9521,53499
22.9578,56179
22.9635,54653
22.9693,52045
22.975,54410
22.9807,52045
22.9864,52932
22.9921,54622
22.9979,56538
23.0036,55163
23.0093,53851
23.015,54093
23.0208,53027
23.0265,55302
23.0322,55864
23.0379,56146
23.0436,56804
23.0494,56362
23.0551,56477
23.0608,54037
23.0665,56301
23.0723,57900
23.078,55136
23.0837,55636
23.0894,56468
23.0951,55529
23.1009,56266
23.1066,58056
23.1123,57379
23.118,57183
23.1238,57804
23.1295,56403
23.1352,56505
23.1409,56912
23.1466,56964
23.1524,59385
23.1581,58463
23.1638,58489
23.1695,58181
23.1753,55109
23.181,59522
23.1867,58642
23.1924,59005
23.1981,60308
23.2039,65084
23.2096,66736
23.2153,63210
23.221,64040
23.2267,61319
23.2325,59326
23.2382,59111
23.2439,61767
23.2496,58734
23.2554,59706
23.2611,62744
23.2668,60716
23.2725,60926
23.2782,59227
23.284,56837
23.2897,58761
23.2954,59621
23.3011,59841
23.3069,60396
23.3126,59826
23.3183,58850
23.324,60081
23.3297,59552
23.3355,61899
23.3412,60239
23.3469,58981
23.3526,59929
23.3584,59898
23.3641,60156
23.3698,62358
23.3755,61188
23.3812,61874
23.387,62636
23.3927,62079
23.3984,61087
23.4041,60116
23.4099,62661
23.4156,61329
23.4213,61221
23.427,59836
23.4327,61675
23.4385,59916
23.4442,62173
23.4499,62106
23.4556,64603
23.4613,61737
23.4671,64791
23.4728,61672
23.4785,59389
23.4842,62086
23.49,64633
23.4957,61691
23.5014,62614
23.5071,59397
23.5128,63934
23.5186,62274
23.5243,64301
23.53,63340
23.5357,63464
23.5415,65649
23.5472,65637
23.5529,63028
23.5586,62573
23.5643,64629
23.5701,62997
23.5758,60682
23.5815,64563
23.5872,62495
23.593,66696
23.5987,64731
23.6044,62229
23.6101,63475
23.6158,65311
23.6216,63830
23.6273,65596
23.633,65033
23.6387,65422
23.6445,61691
23.6502,64558
23.6559,65684
23.6616,64942
23.6673,64157
23.6731,63958
23.6788,64106
23.6845,67064
23.6902,65026
23.696,66021
23.7017,64657
23.7074,63822
23.7131,65785
23.7188,66006
23.7246,66420
23.7303,62650
23.736,64525
23.7417,65675
23.7474,65166
23.7532,67384
23.7589,68554
23.7646,66770
23.7703,63889
23.7761,63405
23.7818,67079
23.7875,65648
23.7932,67965
23.7989,68637
23.8047,67310
23.8104,67260
23.8161,63218
23.8218,64646
23.8276,61857
23.8333,65863
23.839,66792
23.8447,67904
23.8504,64466
23.8562,63628
23.8619,63728
23.8676,67383
23.8733,65748
23.879,66792
23.8848,67879
23.8905,65300
23.8962,64484
23.9019,66835
23.9077,65019
23.9134,65989
23.9191,65919
23.9248,65250
23.9306,67804
23.9363,64645
23.942,63184
23.9477,66588
23.9534,60947
23.9592,65711
23.9649,66805
23.9706,65060
23.9763,64290
23.982,63965
23.9878,66374
23.9935,66763
23.9992,64302
24.0049,64716
24.0107,66655
24.0164,64496
24.0221,66290
24.0278,66078
24.0335,66385
24.0393,64416
24.045,67511
24.0507,63987
24.0564,63249
24.0622,61789
24.0679,68507
24.0736,63792
24.0793,64998
24.085,65579
24.0908,65965
24.0965,65513
24.1022,66572
24.1079,62507
24.1137,65113
24.1194,66781
24.1251,66468
24.1308,64075
24.1365,65148
24.1423,65996
24.148,66621
24.1537,66683
24.1594,64516
24.1652,65649
24.1709,64785
24.1766,67810
24.1823,67954
24.188,68493
24.1938,66902
24.1995,68268
24.2052,67676
24.2109,70845
24.2167,72358
24.2224,70815
24.2281,71254
24.2338,65129
24.2395,65879
24.2453,68493
24.251,66870
24.2567,61898
24.2624,66986
24.2681,64218
24.2739,65977
24.2796,67016
24.2853,64733
24.291,63436
24.2967,67722
24.3025,65167
24.3082,65937
24.3139,66393
24.3196,64895
24.3254,67780
24.3311,65465
24.3368,65839
24.3425,65859
24.3483,65887
24.354,65586
24.3597,66347
24.3654,64984
24.3711,64102
24.3769,60085
24.3826,62875
24.3883,64692
24.394,63375
24.3998,64478
24.4055,64594
24.4112,67143
24.4169,66075
24.4226,64914
24.4284,65058
24.4341,62934
24.4398,65827
24.4455,62649
24.4513,64159
24.457,66778
24.4627,64941
24.4684,65252
24.4741,63371
24.4799,65215
24.4856,65027
24.4913,65534
24.497,62093
24.5027,65408
24.5085,63832
24.5142,67630
24.5199,66754
24.5256,66395
24.5314,63974
24.5371,66360
24.5428,64309
24.5485,66044
24.5542,65537
24.56,63631
24.5657,64925
24.5714,66382
24.5771,65561
24.5829,66742
24.5886,64941
24.5943,65190
24.6,68697
24.6057,64233
24.6115,65846
24.6172,67548
24.6229,65807
24.6286,62953
24.6344,66370
24.6401,65329
24.6458,63344
24.6515,64472
24.6572,68335
24.663,66808
24.6687,64572
24.6744,63301
24.6801,67067
24.6859,64607
24.6916,64780
24.6973,66289
24.703,65296
24.7087,67258
24.7145,66946
24.7202,66198
24.7259,65080
24.7316,65362
24.7373,62755
24.7431,67104
24.7488,64482
24.7545,65163
24.7602,65035
24.766,64648
24.7717,65703
24.7774,67278
24.7831,66195
24.7888,64567
24.7946,63494
24.8003,63773
24.806,62506
24.8117,66136
24.8175,65841
24.8232,67354
24.8289,63169
24.8346,65912
24.8403,67293
24.8461,65663
24.8518,64821
24.8575,64863
24.8632,65773
24.869,65632
24.8747,67381
24.8804,66531
24.8861,67552
24.8918,66427
24.8976,65600
24.9033,65492
24.909,65620
24.9147,64093
24.9205,65807
24.9262,66455
24.9319,65017
24.9376,66825
24.9433,67011
24.9491,68807
24.9548,63632
24.9605,65785
24.9662,63014
24.972,66109
24.9777,66175
24.9834,65307
24.9891,64142
24.9948,63055
