C:\MSDCHEM\1\DATA\SERINA\20180424_NLTAB_FRESH\SLR2_12_NltB_1.d 24 Apr 18   3:18 pm
Start of data points
4.09272,7417
4.09843,6529
4.10417,6633
4.10988,6803
4.1156,6456
4.12133,6748
4.12705,5772
4.13277,6197
4.1385,5909
4.14422,5645
4.14993,6098
4.15567,5926
4.16138,5266
4.1671,5276
4.17283,5450
4.17855,5224
4.18427,6129
4.19,5203
4.19572,4892
4.20143,4855
4.20717,4949
4.21288,5265
4.2186,5102
4.22432,5080
4.23005,5241
4.23577,4422
4.24148,4650
4.24722,3795
4.25293,3975
4.25865,5012
4.26438,4743
4.2701,3653
4.27582,4130
4.28155,4020
4.28727,4278
4.29298,4032
4.29872,4758
4.30443,3911
4.31015,3942
4.31588,3523
4.3216,4098
4.32732,3959
4.33305,3522
4.33877,3532
4.34448,3453
4.3502,4337
4.35593,3175
4.36165,3816
4.36737,3134
4.3731,3533
4.37882,3485
4.38453,3247
4.39027,3529
4.39598,3132
4.4017,3555
4.40743,2984
4.41315,3166
4.41887,3526
4.4246,3257
4.43032,2904
4.43603,2814
4.44177,2452
4.44748,3309
4.4532,2494
4.45893,3136
4.46465,2890
4.47037,2767
4.47608,2689
4.48182,3431
4.48753,2909
4.49325,2848
4.49898,2730
4.5047,2714
4.51042,2957
4.51615,2939
4.52187,3306
4.52758,3187
4.53332,3427
4.53903,3363
4.54475,2393
4.55048,3406
4.5562,3244
4.56192,2698
4.56765,2823
4.57337,2753
4.57908,2471
4.58482,2890
4.59053,2168
4.59625,2567
4.60197,2283
4.6077,2490
4.61342,2232
4.61913,2031
4.62487,2394
4.63058,2456
4.6363,2438
4.64203,2395
4.64775,1888
4.65347,2162
4.6592,2241
4.66492,2129
4.67063,2285
4.67637,2089
4.68208,2138
4.6878,2555
4.69353,2600
4.69925,1836
4.70497,2672
4.7107,2212
4.71642,2733
4.72213,2018
4.72785,2570
4.73358,2431
4.7393,2071
4.74502,2337
4.75075,2442
4.75647,2314
4.76218,1839
4.76792,2166
4.77363,1964
4.77935,1701
4.78508,2032
4.7908,2264
4.79652,1797
4.80225,2318
4.80797,2619
4.81368,2257
4.81942,1932
4.82513,1702
4.83085,1799
4.83658,1966
4.8423,1789
4.84802,2119
4.85373,1594
4.85947,2032
4.86518,2208
4.8709,2029
4.87663,2071
4.88235,2354
4.88807,2035
4.8938,1643
4.89952,1630
4.90523,1728
4.91097,1731
4.91668,1410
4.9224,1376
4.92813,1804
4.93385,1958
4.93957,1517
4.9453,1373
4.95102,1485
4.95673,1916
4.96247,1413
4.96818,1120
4.9739,1441
4.97963,1568
4.98535,1708
4.99107,1513
4.99678,1362
5.00252,1599
5.00823,1381
5.01395,1731
5.01968,1485
5.0254,1314
5.03112,1478
5.03685,1395
5.04257,1821
5.04828,1516
5.05402,1159
5.05973,1826
5.06545,1381
5.07118,1081
5.0769,1352
5.08262,1165
5.08835,1503
5.09407,1301
5.09978,1435
5.10552,1438
5.11123,1281
5.11695,1642
5.12267,1330
5.1284,1498
5.13412,1411
5.13983,1245
5.14557,1141
5.15128,757
5.157,1750
5.16273,1604
5.16845,1229
5.17417,1740
5.1799,1183
5.18562,1509
5.19133,1395
5.19707,1561
5.20278,1139
5.2085,1134
5.21423,1277
5.21995,926
5.22567,1482
5.2314,1400
5.23712,1311
5.24283,1360
5.24855,1087
5.25428,1788
5.26,1626
5.26572,1172
5.27145,1412
5.27717,1436
5.28288,1082
5.28862,1182
5.29433,1241
5.30005,1932
5.30578,1912
5.3115,1580
5.31722,2079
5.32295,1719
5.32867,1443
5.33438,1204
5.34012,1437
5.34583,1172
5.35155,1623
5.35728,1454
5.363,1705
5.36872,998
5.37443,1560
5.38017,1583
5.38588,1238
5.3916,1250
5.39733,1535
5.40305,1085
5.40877,1337
5.4145,1111
5.42022,1598
5.42593,1287
5.43167,1293
5.43738,1594
5.4431,1544
5.44883,1442
5.45455,1149
5.46027,1311
5.466,948
5.47172,1278
5.47743,1459
5.48317,1325
5.48888,1229
5.4946,1457
5.50032,1467
5.50605,978
5.51177,1174
5.51748,1321
5.52322,1422
5.52893,1270
5.53465,1465
5.54038,913
5.5461,767
5.55182,907
5.55755,1301
5.56327,1028
5.56898,1043
5.57472,1519
5.58043,1087
5.58615,1194
5.59188,1125
5.5976,1000
5.60332,1176
5.60905,959
5.61477,891
5.62048,921
5.6262,1076
5.63193,1168
5.63765,976
5.64337,928
5.6491,1288
5.65482,960
5.66053,836
5.66627,1293
5.67198,1266
5.6777,890
5.68343,1286
5.68915,1241
5.69487,910
5.7006,849
5.70632,1176
5.71203,957
5.71777,969
5.72348,1086
5.7292,1288
5.73493,1050
5.74065,1074
5.74637,1220
5.75208,1257
5.75782,1150
5.76353,990
5.76925,1247
5.77498,972
5.7807,771
5.78642,1011
5.79215,921
5.79787,1162
5.80358,1041
5.80932,1011
5.81503,1009
5.82075,1046
5.82648,805
5.8322,1109
5.83792,898
5.84365,1032
5.84937,895
5.85508,788
5.86082,1062
5.86653,1096
5.87225,1127
5.87797,647
5.8837,1043
5.88942,614
5.89513,836
5.90087,669
5.90658,1006
5.9123,1138
5.91803,1062
5.92375,1356
5.92947,1170
5.9352,1119
5.94092,1394
5.94663,1286
5.95237,1125
5.95808,1078
5.9638,1218
5.96953,1229
5.97525,1257
5.98097,1005
5.9867,936
5.99242,1284
5.99813,777
6.00385,905
6.00958,792
6.0153,989
6.02102,943
6.02675,830
6.03247,856
6.03818,1122
6.04392,699
6.04963,1125
6.05535,1230
6.06108,1299
6.0668,659
6.07252,984
6.07825,1199
6.08397,995
6.08968,935
6.09542,632
6.10113,1129
6.10685,751
6.11258,718
6.1183,945
6.12402,963
6.12973,619
6.13547,835
6.14118,743
6.1469,1086
6.15263,1332
6.15835,490
6.16407,1041
6.1698,757
6.17552,786
6.18123,719
6.18697,961
6.19268,932
6.1984,686
6.20413,716
6.20985,883
6.21557,977
6.2213,754
6.22702,748
6.23273,998
6.23847,859
6.24418,700
6.2499,567
6.25562,905
6.26135,932
6.26707,715
6.27278,691
6.27852,744
6.28423,907
6.28995,895
6.29568,478
6.3014,821
6.30712,881
6.31285,825
6.31857,753
6.32428,945
6.33002,541
6.33573,786
6.34145,680
6.34718,804
6.3529,960
6.35862,1198
6.36435,918
6.37007,824
6.37578,661
6.3815,811
6.38723,867
6.39295,656
6.39867,853
6.4044,669
6.41012,972
6.41583,636
6.42157,755
6.42728,850
6.433,543
6.43873,826
6.44445,698
6.45017,687
6.4559,675
6.46162,586
6.46733,839
6.47307,811
6.47878,891
6.4845,903
6.49023,759
6.49595,576
6.50167,934
6.50738,727
6.51312,757
6.51883,702
6.52455,576
6.53028,659
6.536,560
6.54172,661
6.54745,826
6.55317,851
6.55888,780
6.56462,841
6.57033,674
6.57605,541
6.58178,535
6.5875,825
6.59322,763
6.59895,727
6.60467,958
6.61038,1029
6.61612,580
6.62183,968
6.62755,778
6.63327,913
6.639,917
6.64472,817
6.65043,666
6.65617,681
6.66188,936
6.6676,672
6.67333,740
6.67905,607
6.68477,666
6.6905,802
6.69622,934
6.70193,800
6.70767,924
6.71338,700
6.7191,631
6.72483,882
6.73055,683
6.73627,699
6.742,803
6.74772,744
6.75343,750
6.75915,669
6.76488,1053
6.7706,1011
6.77632,771
6.78205,1240
6.78777,1268
6.79348,1171
6.79922,973
6.80493,1026
6.81065,976
6.81638,735
6.8221,738
6.82782,796
6.83355,709
6.83927,871
6.84498,889
6.85072,409
6.85643,799
6.86215,894
6.86788,687
6.8736,845
6.87932,723
6.88503,775
6.89077,783
6.89648,897
6.9022,758
6.90793,739
6.91365,810
6.91937,762
6.9251,905
6.93082,566
6.93653,698
6.94227,737
6.94798,556
6.9537,643
6.95943,750
6.96515,610
6.97087,807
6.9766,927
6.98232,645
6.98803,713
6.99377,821
6.99948,384
7.0052,560
7.01092,369
7.01665,875
7.02237,691
7.02808,470
7.03382,591
7.03953,834
7.04525,764
7.05098,306
7.0567,614
7.06242,839
7.06815,835
7.07387,734
7.07958,727
7.08532,629
7.09103,917
7.09675,618
7.10248,790
7.1082,662
7.11392,912
7.11965,627
7.12537,478
7.13108,714
7.1368,607
7.14253,746
7.14825,653
7.15397,482
7.1597,492
7.16542,536
7.17113,578
7.17687,539
7.18258,868
7.1883,513
7.19403,510
7.19975,533
7.20547,473
7.2112,911
7.21692,850
7.22263,467
7.22837,774
7.23408,669
7.2398,669
7.24553,323
7.25125,771
7.25697,524
7.26268,521
7.26842,595
7.27413,572
7.27985,787
7.28558,750
7.2913,593
7.29702,1048
7.30275,670
7.30847,587
7.31418,709
7.31992,837
7.32563,698
7.33135,599
7.33708,568
7.3428,613
7.34852,886
7.35425,476
7.35997,963
7.36568,372
7.37142,793
7.37713,616
7.38285,701
7.38857,605
7.3943,762
7.40002,892
7.40573,701
7.41147,839
7.41718,543
7.4229,630
7.42863,654
7.43435,633
7.44007,808
7.4458,777
7.45152,589
7.45723,849
7.46297,213
7.46868,723
7.4744,531
7.48013,612
7.48585,911
7.49157,613
7.4973,441
7.50302,601
7.50873,508
7.51445,394
7.52018,412
7.5259,704
7.53162,610
7.53735,680
7.54307,580
7.54878,485
7.55452,508
7.56023,584
7.56595,754
7.57168,508
7.5774,901
7.58312,720
7.58885,665
7.59457,614
7.60028,657
7.60602,596
7.61173,547
7.61745,601
7.62318,874
7.6289,569
7.63462,426
7.64033,528
7.64607,801
7.65178,633
7.6575,668
7.66323,589
7.66895,678
7.67467,778
7.6804,425
7.68612,799
7.69183,505
7.69757,523
7.70328,485
7.709,469
7.71473,490
7.72045,581
7.72617,627
7.7319,654
7.73762,541
7.74333,481
7.74907,544
7.75478,526
7.7605,599
7.76622,372
7.77195,548
7.77767,399
7.78338,747
7.78912,465
7.79483,547
7.80055,491
7.80628,657
7.812,614
7.81772,645
7.82345,540
7.82917,493
7.83488,586
7.84062,459
7.84633,669
7.85205,587
7.85778,596
7.8635,235
7.86922,430
7.87495,620
7.88067,419
7.88638,550
7.8921,519
7.89783,771
7.90355,700
7.90927,771
7.915,544
7.92072,152
7.92643,224
7.93217,274
7.93788,540
7.9436,234
7.94933,472
7.95505,275
7.96077,534
7.9665,353
7.97222,480
7.97793,468
7.98367,480
7.98938,538
7.9951,466
8.00083,655
8.00655,440
8.01227,213
8.01798,552
8.02372,382
8.02943,599
8.03515,417
8.04088,463
8.0466,714
8.05232,363
8.05805,484
8.06377,652
8.06948,719
8.07522,301
8.08093,460
8.08665,410
8.09238,699
8.0981,677
8.10382,732
8.10955,592
8.11527,675
8.12098,427
8.12672,518
8.13243,620
8.13815,604
8.14387,683
8.1496,443
8.15532,429
8.16103,477
8.16677,449
8.17248,410
8.1782,620
8.18393,528
8.18965,376
8.19537,292
8.2011,361
8.20682,546
8.21253,538
8.21827,335
8.22398,508
8.2297,677
8.23543,751
8.24115,477
8.24687,488
8.2526,518
8.25832,712
8.26403,855
8.26975,259
8.27548,443
8.2812,436
8.28692,619
8.29265,364
8.29837,434
8.30408,580
8.30982,667
8.31553,723
8.32125,200
8.32698,217
8.3327,495
8.33842,525
8.34415,572
8.34987,854
8.35558,775
8.36132,919
8.36703,885
8.37275,694
8.37848,226
8.3842,439
8.38992,662
8.39563,495
8.40137,584
8.40708,461
8.4128,150
8.41853,416
8.42425,780
8.42997,382
8.4357,162
8.44142,419
8.44713,507
8.45287,548
8.45858,469
8.4643,574
8.47003,450
8.47575,518
8.48147,403
8.4872,599
8.49292,478
8.49863,568
8.50437,740
8.51008,217
8.5158,516
8.52153,493
8.52725,415
8.53297,445
8.53868,591
8.54442,493
8.55013,371
8.55585,445
8.56158,274
8.5673,416
8.57302,476
8.57875,465
8.58447,415
8.59018,290
8.59592,405
8.60163,180
8.60735,237
8.61308,484
8.6188,474
8.62452,696
8.63025,462
8.63597,437
8.64168,441
8.64742,237
8.65313,583
8.65885,464
8.66457,789
8.6703,575
8.67602,458
8.68173,720
8.68747,491
8.69318,453
8.6989,403
8.70463,455
8.71035,553
8.71607,494
8.7218,814
8.72752,317
8.73323,631
8.73897,515
8.74468,152
8.7504,246
8.75613,758
8.76185,412
8.76757,552
8.7733,581
8.77902,621
8.78473,0
8.79045,345
8.79618,491
8.8019,237
8.80762,412
8.81335,390
8.81907,547
8.82478,224
8.83052,561
8.83623,401
8.84195,164
8.84768,557
8.8534,531
8.85912,504
8.86485,628
8.87057,424
8.87628,347
8.88202,381
8.88773,195
8.89345,616
8.89918,434
8.9049,205
8.91062,445
8.91633,290
8.92207,462
8.92778,842
8.9335,465
8.93923,1282
8.94495,839
8.95067,794
8.9564,816
8.96212,193
8.96783,339
8.97357,0
8.97928,589
8.985,490
8.99073,278
8.99645,342
9.00217,668
9.0079,629
9.01362,557
9.01933,695
9.02507,486
9.03078,245
9.0365,684
9.04222,443
9.04795,177
9.05367,734
9.05938,546
9.06512,424
9.07083,1517
9.07655,2356
9.08228,2880
9.088,2761
9.09372,2180
9.09945,1623
9.10517,1361
9.11088,1076
9.11662,933
9.12233,573
9.12805,847
9.13378,339
9.1395,377
9.14522,308
9.15095,269
9.15667,584
9.16238,452
9.1681,461
9.17383,722
9.17955,271
9.18527,733
9.191,439
9.19672,287
9.20243,248
9.20817,309
9.21388,602
9.2196,529
9.22533,531
9.23105,527
9.23677,189
9.2425,319
9.24822,449
9.25393,381
9.25967,482
9.26538,194
9.2711,645
9.27683,633
9.28255,259
9.28827,313
9.29398,719
9.29972,424
9.30543,481
9.31115,377
9.31688,306
9.3226,208
9.32832,325
9.33405,189
9.33977,157
9.34548,0
9.35122,286
9.35693,500
9.36265,436
9.36838,217
9.3741,378
9.37982,421
9.38555,203
9.39127,611
9.39698,553
9.40272,193
9.40843,509
9.41415,205
9.41987,0
9.4256,788
9.43132,270
9.43703,542
9.44277,230
9.44848,357
9.4542,343
9.45993,592
9.46565,416
9.47137,219
9.4771,443
9.48282,0
9.48853,377
9.49427,426
9.49998,156
9.5057,403
9.51143,171
9.51715,250
9.52287,495
9.5286,335
9.53432,302
9.54003,328
9.54575,0
9.55148,284
9.5572,158
9.56292,230
9.56865,163
9.57437,690
9.58008,420
9.58582,545
9.59153,390
9.59725,696
9.60298,378
9.6087,537
9.61442,396
9.62015,392
9.62587,398
9.63158,257
9.63732,501
9.64303,332
9.64875,381
9.65448,562
9.6602,583
9.66592,556
9.67163,259
9.67737,284
9.68308,162
9.6888,398
9.69453,305
9.70025,473
9.70597,271
9.7117,225
9.71742,605
9.72313,304
9.72887,0
9.73458,211
9.7403,250
9.74603,470
9.75175,153
9.75747,325
9.7632,268
9.76892,414
9.77463,153
9.78037,245
9.78608,180
9.7918,384
9.79752,0
9.80325,394
9.80897,350
9.81468,631
9.82042,362
9.82613,364
9.83185,227
9.83758,0
9.8433,205
9.84902,0
9.85475,233
9.86047,213
9.86618,328
9.87192,231
9.87763,0
9.88335,211
9.88908,512
9.8948,476
9.90052,181
9.90625,287
9.91197,436
9.91768,0
9.9234,181
9.92913,223
9.93485,410
9.94057,342
9.9463,442
9.95202,224
9.95773,0
9.96347,196
9.96918,153
9.9749,161
9.98063,167
9.98635,161
9.99207,514
9.9978,326
10.0035,221
10.0092,478
10.015,179
10.0207,167
10.0264,269
10.0321,208
10.0379,330
10.0436,601
10.0493,282
10.055,560
10.0607,171
10.0665,443
10.0722,267
10.0779,0
10.0836,226
10.0894,505
10.0951,393
10.1008,202
10.1065,178
10.1122,405
10.118,590
10.1237,389
10.1294,0
10.1351,212
10.1409,0
10.1466,221
10.1523,251
10.158,393
10.1637,535
10.1695,179
10.1752,264
10.1809,219
10.1866,476
10.1923,177
10.1981,314
10.2038,162
10.2095,452
10.2152,233
10.221,354
10.2267,178
10.2324,258
10.2381,525
10.2438,322
10.2496,161
10.2553,0
10.261,532
10.2667,485
10.2725,1597
10.2782,1796
10.2839,1268
10.2896,522
10.2953,362
10.3011,551
10.3068,0
10.3125,262
10.3182,214
10.324,242
10.3297,210
10.3354,808
10.3411,156
10.3468,272
10.3526,156
10.3583,161
10.364,0
10.3697,286
10.3755,190
10.3812,279
10.3869,363
10.3926,179
10.3983,509
10.4041,374
10.4098,191
10.4155,451
10.4212,188
10.4269,203
10.4327,472
10.4384,343
10.4441,0
10.4498,175
10.4556,484
10.4613,214
10.467,0
10.4727,329
10.4784,414
10.4842,0
10.4899,529
10.4956,367
10.5013,450
10.5071,373
10.5128,0
10.5185,195
10.5242,202
10.5299,344
10.5357,306
10.5414,416
10.5471,248
10.5528,591
10.5586,350
10.5643,153
10.57,880
10.5757,755
10.5814,898
10.5872,198
10.5929,503
10.5986,377
10.6043,183
10.6101,0
10.6158,190
10.6215,338
10.6272,414
10.6329,0
10.6387,424
10.6444,457
10.6501,393
10.6558,153
10.6616,0
10.6673,738
10.673,444
10.6787,219
10.6844,158
10.6902,582
10.6959,187
10.7016,355
10.7073,229
10.713,185
10.7188,203
10.7245,257
10.7302,333
10.7359,0
10.7417,343
10.7474,405
10.7531,448
10.7588,0
10.7645,478
10.7703,176
10.776,340
10.7817,206
10.7874,0
10.7932,192
10.7989,311
10.8046,179
10.8103,203
10.816,433
10.8218,0
10.8275,470
10.8332,353
10.8389,0
10.8447,633
10.8504,2559
10.8561,4135
10.8618,4922
10.8675,4306
10.8733,3233
10.879,2282
10.8847,2039
10.8904,1710
10.8962,872
10.9019,729
10.9076,1088
10.9133,838
10.919,578
10.9248,517
10.9305,547
10.9362,688
10.9419,249
10.9476,177
10.9534,165
10.9591,0
10.9648,339
10.9705,975
10.9763,974
10.982,343
10.9877,450
10.9934,595
10.9991,153
11.0049,192
11.0106,157
11.0163,508
11.022,261
11.0278,182
11.0335,213
11.0392,430
11.0449,186
11.0506,0
11.0564,159
11.0621,0
11.0678,173
11.0735,156
11.0793,0
11.085,0
11.0907,166
11.0964,0
11.1021,272
11.1079,0
11.1136,215
11.1193,435
11.125,838
11.1308,1741
11.1365,2762
11.1422,4618
11.1479,4041
11.1536,2172
11.1594,757
11.1651,565
11.1708,240
11.1765,324
11.1822,222
11.188,238
11.1937,223
11.1994,168
11.2051,189
11.2109,195
11.2166,378
11.2223,195
11.228,206
11.2337,214
11.2395,172
11.2452,156
11.2509,222
11.2566,442
11.2624,524
11.2681,519
11.2738,211
11.2795,0
11.2852,360
11.291,0
11.2967,215
11.3024,155
11.3081,0
11.3139,178
11.3196,0
11.3253,231
11.331,153
11.3367,476
11.3425,0
11.3482,187
11.3539,468
11.3596,153
11.3654,0
11.3711,181
11.3768,0
11.3825,0
11.3882,330
11.394,169
11.3997,0
11.4054,0
11.4111,0
11.4169,0
11.4226,376
11.4283,183
11.434,339
11.4397,577
11.4455,472
11.4512,1061
11.4569,928
11.4626,999
11.4683,799
11.4741,0
11.4798,430
11.4855,591
11.4912,160
11.497,0
11.5027,182
11.5084,407
11.5141,434
11.5198,182
11.5256,404
11.5313,233
11.537,0
11.5427,0
11.5485,430
11.5542,347
11.5599,0
11.5656,299
11.5713,194
11.5771,200
11.5828,340
11.5885,0
11.5942,235
11.6,326
11.6057,182
11.6114,0
11.6171,0
11.6228,180
11.6286,259
11.6343,178
11.64,0
11.6457,0
11.6515,179
11.6572,209
11.6629,437
11.6686,248
11.6743,169
11.6801,186
11.6858,373
11.6915,187
11.6972,396
11.7029,246
11.7087,0
11.7144,357
11.7201,0
11.7258,174
11.7316,233
11.7373,0
11.743,0
11.7487,382
11.7544,152
11.7602,155
11.7659,161
11.7716,392
11.7773,342
11.7831,177
11.7888,0
11.7945,151
11.8002,177
11.8059,384
11.8117,0
11.8174,211
11.8231,0
11.8288,0
11.8346,232
11.8403,0
11.846,0
11.8517,157
11.8574,542
11.8632,221
11.8689,341
11.8746,0
11.8803,189
11.8861,543
11.8918,202
11.8975,165
11.9032,379
11.9089,0
11.9147,183
11.9204,238
11.9261,490
11.9318,350
11.9375,224
11.9433,0
11.949,178
11.9547,213
11.9604,188
11.9662,193
11.9719,160
11.9776,212
11.9833,167
11.989,388
11.9948,167
12.0005,185
12.0062,192
12.0119,159
12.0177,0
12.0234,0
12.0291,0
12.0348,0
12.0405,320
12.0463,330
12.052,402
12.0577,0
12.0634,226
12.0692,0
12.0749,243
12.0806,194
12.0863,358
12.092,170
12.0978,407
12.1035,151
12.1092,0
12.1149,365
12.1207,233
12.1264,0
12.1321,0
12.1378,552
12.1435,823
12.1493,1046
12.155,919
12.1607,552
12.1664,649
12.1722,382
12.1779,343
12.1836,364
12.1893,201
12.195,177
12.2008,0
12.2065,192
12.2122,160
12.2179,195
12.2236,154
12.2294,300
12.2351,0
12.2408,0
12.2465,0
12.2523,0
12.258,156
12.2637,331
12.2694,0
12.2751,543
12.2809,576
12.2866,0
12.2923,172
12.298,286
12.3038,155
12.3095,166
12.3152,309
12.3209,211
12.3266,0
12.3324,0
12.3381,330
12.3438,0
12.3495,0
12.3553,191
12.361,230
12.3667,232
12.3724,0
12.3781,357
12.3839,158
12.3896,0
12.3953,0
12.401,0
12.4068,330
12.4125,194
12.4182,403
12.4239,335
12.4296,0
12.4354,177
12.4411,0
12.4468,247
12.4525,0
12.4582,0
12.464,174
12.4697,0
12.4754,407
12.4811,352
12.4869,151
12.4926,0
12.4983,200
12.504,0
12.5097,405
12.5155,270
12.5212,350
12.5269,272
12.5326,225
12.5384,302
12.5441,0
12.5498,152
12.5555,175
12.5612,161
12.567,0
12.5727,333
12.5784,222
12.5841,159
12.5899,180
12.5956,0
12.6013,194
12.607,547
12.6127,162
12.6185,214
12.6242,332
12.6299,514
12.6356,353
12.6414,484
12.6471,221
12.6528,348
12.6585,151
12.6642,353
12.67,374
12.6757,370
12.6814,0
12.6871,498
12.6929,263
12.6986,0
12.7043,364
12.71,0
12.7157,284
12.7215,576
12.7272,223
12.7329,340
12.7386,333
12.7443,207
12.7501,152
12.7558,197
12.7615,363
12.7672,0
12.773,171
12.7787,203
12.7844,0
12.7901,166
12.7958,159
12.8016,0
12.8073,0
12.813,0
12.8187,161
12.8245,175
12.8302,167
12.8359,0
12.8416,253
12.8473,392
12.8531,157
12.8588,152
12.8645,389
12.8702,0
12.876,178
12.8817,0
12.8874,361
12.8931,208
12.8988,0
12.9046,174
12.9103,387
12.916,0
12.9217,155
12.9275,0
12.9332,220
12.9389,253
12.9446,732
12.9503,1775
12.9561,2379
12.9618,3199
12.9675,1757
12.9732,1464
12.9789,764
12.9847,0
12.9904,376
12.9961,0
13.0018,255
13.0076,0
13.0133,276
13.019,0
13.0247,0
13.0304,0
13.0362,210
13.0419,0
13.0476,355
13.0533,179
13.0591,0
13.0648,0
13.0705,0
13.0762,257
13.0819,153
13.0877,0
13.0934,156
13.0991,244
13.1048,342
13.1106,313
13.1163,395
13.122,603
13.1277,520
13.1334,879
13.1392,424
13.1449,322
13.1506,348
13.1563,204
13.1621,181
13.1678,0
13.1735,160
13.1792,373
13.1849,531
13.1907,0
13.1964,0
13.2021,567
13.2078,528
13.2135,455
13.2193,219
13.225,348
13.2307,321
13.2364,435
13.2422,497
13.2479,259
13.2536,405
13.2593,166
13.265,219
13.2708,0
13.2765,0
13.2822,157
13.2879,0
13.2937,0
13.2994,168
13.3051,0
13.3108,394
13.3165,163
13.3223,451
13.328,232
13.3337,209
13.3394,0
13.3452,226
13.3509,332
13.3566,349
13.3623,309
13.368,0
13.3738,335
13.3795,175
13.3852,209
13.3909,369
13.3967,243
13.4024,316
13.4081,248
13.4138,0
13.4195,466
13.4253,0
13.431,200
13.4367,0
13.4424,0
13.4482,616
13.4539,204
13.4596,0
13.4653,185
13.471,389
13.4768,0
13.4825,366
13.4882,263
13.4939,193
13.4996,183
13.5054,0
13.5111,0
13.5168,325
13.5225,208
13.5283,461
13.534,247
13.5397,0
13.5454,322
13.5511,153
13.5569,440
13.5626,380
13.5683,280
13.574,190
13.5798,431
13.5855,179
13.5912,228
13.5969,167
13.6026,0
13.6084,194
13.6141,152
13.6198,175
13.6255,367
13.6313,191
13.637,399
13.6427,905
13.6484,749
13.6541,328
13.6599,190
13.6656,195
13.6713,0
13.677,0
13.6828,274
13.6885,157
13.6942,230
13.6999,167
13.7056,178
13.7114,0
13.7171,155
13.7228,0
13.7285,216
13.7342,247
13.74,209
13.7457,164
13.7514,0
13.7571,191
13.7629,166
13.7686,222
13.7743,156
13.78,198
13.7857,0
13.7915,403
13.7972,0
13.8029,195
13.8086,349
13.8144,333
13.8201,326
13.8258,362
13.8315,162
13.8372,170
13.843,180
13.8487,158
13.8544,0
13.8601,630
13.8659,0
13.8716,386
13.8773,0
13.883,0
13.8887,0
13.8945,0
13.9002,500
13.9059,0
13.9116,372
13.9174,159
13.9231,227
13.9288,198
13.9345,159
13.9402,0
13.946,177
13.9517,0
13.9574,532
13.9631,404
13.9688,176
13.9746,164
13.9803,0
13.986,0
13.9917,175
13.9975,417
14.0032,152
14.0089,372
14.0146,151
14.0203,222
14.0261,219
14.0318,200
14.0375,258
14.0432,0
14.049,361
14.0547,0
14.0604,355
14.0661,200
14.0718,0
14.0776,213
14.0833,153
14.089,314
14.0947,154
14.1005,173
14.1062,0
14.1119,165
14.1176,159
14.1233,341
14.1291,158
14.1348,152
14.1405,173
14.1462,398
14.152,0
14.1577,310
14.1634,498
14.1691,259
14.1748,234
14.1806,0
14.1863,0
14.192,396
14.1977,227
14.2035,163
14.2092,160
14.2149,0
14.2206,155
14.2263,527
14.2321,355
14.2378,426
14.2435,468
14.2492,163
14.2549,0
14.2607,0
14.2664,0
14.2721,225
14.2778,688
14.2836,0
14.2893,232
14.295,0
14.3007,0
14.3064,234
14.3122,0
14.3179,424
14.3236,191
14.3293,214
14.3351,229
14.3408,0
14.3465,173
14.3522,184
14.3579,163
14.3637,236
14.3694,160
14.3751,305
14.3808,203
14.3866,363
14.3923,385
14.398,267
14.4037,0
14.4094,179
14.4152,195
14.4209,342
14.4266,153
14.4323,199
14.4381,0
14.4438,211
14.4495,165
14.4552,343
14.4609,234
14.4667,238
14.4724,0
14.4781,0
14.4838,203
14.4895,418
14.4953,0
14.501,434
14.5067,704
14.5124,531
14.5182,1437
14.5239,1732
14.5296,1198
14.5353,977
14.541,481
14.5468,179
14.5525,171
14.5582,0
14.5639,0
14.5697,207
14.5754,384
14.5811,412
14.5868,0
14.5925,0
14.5983,0
14.604,337
14.6097,323
14.6154,164
14.6212,161
14.6269,0
14.6326,0
14.6383,538
14.644,196
14.6498,364
14.6555,387
14.6612,191
14.6669,0
14.6727,175
14.6784,194
14.6841,0
14.6898,350
14.6955,196
14.7013,405
14.707,183
14.7127,0
14.7184,476
14.7241,177
14.7299,245
14.7356,404
14.7413,361
14.747,205
14.7528,561
14.7585,443
14.7642,0
14.7699,285
14.7756,193
14.7814,353
14.7871,401
14.7928,465
14.7985,366
14.8043,167
14.81,184
14.8157,201
14.8214,406
14.8271,634
14.8329,0
14.8386,0
14.8443,218
14.85,354
14.8558,0
14.8615,181
14.8672,193
14.8729,523
14.8786,167
14.8844,0
14.8901,0
14.8958,152
14.9015,639
14.9073,159
14.913,175
14.9187,0
14.9244,278
14.9301,315
14.9359,342
14.9416,460
14.9473,206
14.953,347
14.9588,157
14.9645,0
14.9702,182
14.9759,383
14.9816,0
14.9874,187
14.9931,157
14.9988,161
15.0045,0
15.0102,171
15.016,0
15.0217,255
15.0274,177
15.0331,159
15.0389,154
15.0446,173
15.0503,271
15.056,164
15.0617,197
15.0675,164
15.0732,0
15.0789,206
15.0846,204
15.0904,565
15.0961,207
15.1018,219
15.1075,199
15.1132,419
15.119,376
15.1247,501
15.1304,378
15.1361,180
15.1419,0
15.1476,155
15.1533,267
15.159,314
15.1647,183
15.1705,423
15.1762,338
15.1819,150
15.1876,341
15.1934,302
15.1991,408
15.2048,291
15.2105,352
15.2162,215
15.222,480
15.2277,613
15.2334,275
15.2391,0
15.2448,203
15.2506,0
15.2563,162
15.262,194
15.2677,545
15.2735,157
15.2792,0
15.2849,383
15.2906,197
15.2963,380
15.3021,438
15.3078,402
15.3135,409
15.3192,169
15.325,468
15.3307,415
15.3364,571
15.3421,208
15.3478,186
15.3536,201
15.3593,497
15.365,380
15.3707,218
15.3765,378
15.3822,215
15.3879,364
15.3936,326
15.3993,0
15.4051,312
15.4108,469
15.4165,275
15.4222,259
15.428,290
15.4337,396
15.4394,454
15.4451,467
15.4508,426
15.4566,551
15.4623,346
15.468,239
15.4737,247
15.4794,266
15.4852,357
15.4909,223
15.4966,162
15.5023,306
15.5081,246
15.5138,482
15.5195,369
15.5252,438
15.5309,316
15.5367,206
15.5424,251
15.5481,449
15.5538,342
15.5596,215
15.5653,167
15.571,302
15.5767,198
15.5824,153
15.5882,483
15.5939,220
15.5996,203
15.6053,159
15.6111,406
15.6168,500
15.6225,570
15.6282,389
15.6339,321
15.6397,182
15.6454,0
15.6511,417
15.6568,539
15.6626,181
15.6683,0
15.674,0
15.6797,471
15.6854,549
15.6912,617
15.6969,333
15.7026,164
15.7083,195
15.7141,423
15.7198,562
15.7255,525
15.7312,570
15.7369,395
15.7427,392
15.7484,258
15.7541,187
15.7598,431
15.7655,497
15.7713,392
15.777,444
15.7827,428
15.7884,401
15.7942,177
15.7999,426
15.8056,345
15.8113,0
15.817,432
15.8228,342
15.8285,344
15.8342,319
15.8399,447
15.8457,157
15.8514,390
15.8571,395
15.8628,178
15.8685,357
15.8743,432
15.88,187
15.8857,447
15.8914,367
15.8972,419
15.9029,632
15.9086,748
15.9143,905
15.92,1204
15.9258,1433
15.9315,960
15.9372,528
15.9429,284
15.9487,517
15.9544,446
15.9601,207
15.9658,276
15.9715,618
15.9773,476
15.983,720
15.9887,511
15.9944,223
16.0001,544
16.0059,221
16.0116,553
16.0173,253
16.023,358
16.0287,657
16.0345,292
16.0402,427
16.0459,241
16.0516,289
16.0574,390
16.0631,408
16.0688,689
16.0745,473
16.0802,302
16.086,606
16.0917,276
16.0974,312
16.1031,437
16.1089,493
16.1146,785
16.1203,235
16.126,444
16.1318,512
16.1375,675
16.1432,778
16.1489,422
16.1546,557
16.1604,298
16.1661,331
16.1718,326
16.1775,355
16.1833,546
16.189,623
16.1947,239
16.2004,893
16.2061,173
16.2118,641
16.2176,192
16.2233,278
16.229,416
16.2347,302
16.2405,382
16.2462,502
16.2519,750
16.2576,768
16.2633,481
16.2691,548
16.2748,318
16.2805,556
16.2862,295
16.292,401
16.2977,567
16.3034,288
16.3091,490
16.3149,498
16.3206,509
16.3263,690
16.332,644
16.3377,176
16.3435,589
16.3492,634
16.3549,683
16.3606,326
16.3664,325
16.3721,798
16.3778,641
16.3835,448
16.3892,648
16.395,876
16.4007,614
16.4064,456
16.4121,620
16.4179,288
16.4236,816
16.4293,551
16.435,491
16.4407,242
16.4464,435
16.4522,516
16.4579,327
16.4636,605
16.4693,363
16.4751,406
16.4808,525
16.4865,377
16.4922,270
16.4979,503
16.5037,478
16.5094,555
16.5151,628
16.5208,491
16.5266,335
16.5323,662
16.538,726
16.5437,462
16.5495,484
16.5552,315
16.5609,478
16.5666,444
16.5723,475
16.5781,537
16.5838,607
16.5895,521
16.5952,740
16.601,499
16.6067,679
16.6124,679
16.6181,708
16.6238,392
16.6295,701
16.6353,586
16.641,537
16.6467,862
16.6525,728
16.6582,462
16.6639,532
16.6696,707
16.6753,812
16.681,390
16.6868,451
16.6925,735
16.6982,649
16.7039,885
16.7097,612
16.7154,941
16.7211,238
16.7268,880
16.7326,743
16.7383,345
16.744,345
16.7497,505
16.7554,325
16.7612,838
16.7669,774
16.7726,486
16.7783,369
16.7841,717
16.7898,625
16.7955,657
16.8012,659
16.8069,455
16.8127,631
16.8184,656
16.8241,628
16.8298,353
16.8356,763
16.8413,484
16.847,695
16.8527,704
16.8584,791
16.8642,659
16.8699,919
16.8756,655
16.8813,688
16.887,1099
16.8928,580
16.8985,768
16.9042,714
16.9099,688
16.9156,555
16.9214,870
16.9271,492
16.9328,481
16.9385,565
16.9443,879
16.95,415
16.9557,775
16.9614,771
16.9672,686
16.9729,287
16.9786,537
16.9843,831
16.9901,732
16.9958,869
17.0015,1114
17.0072,1143
17.0129,863
17.0187,593
17.0244,766
17.0301,823
17.0358,365
17.0415,522
17.0473,659
17.053,891
17.0587,652
17.0644,554
17.0702,882
17.0759,614
17.0816,785
17.0873,498
17.093,663
17.0988,609
17.1045,1290
17.1102,752
17.1159,1104
17.1216,577
17.1274,749
17.1331,442
17.1388,779
17.1445,872
17.1503,786
17.156,706
17.1617,760
17.1674,478
17.1732,964
17.1789,965
17.1846,726
17.1903,1329
17.196,883
17.2018,1565
17.2075,1931
17.2132,1249
17.2189,1180
17.2247,997
17.2304,1315
17.2361,502
17.2418,1043
17.2475,978
17.2533,717
17.259,835
17.2647,994
17.2704,916
17.2761,913
17.2819,858
17.2876,473
17.2933,987
17.299,709
17.3047,1348
17.3105,810
17.3162,683
17.3219,729
17.3276,1023
17.3334,1073
17.3391,1137
17.3448,1319
17.3505,811
17.3562,1017
17.362,1428
17.3677,871
17.3734,976
17.3791,751
17.3849,1026
17.3906,417
17.3963,1077
17.402,1010
17.4078,898
17.4135,433
17.4192,901
17.4249,673
17.4306,1104
17.4364,750
17.4421,944
17.4478,895
17.4535,1071
17.4593,927
17.465,1000
17.4707,1123
17.4764,1057
17.4821,801
17.4879,947
17.4936,1073
17.4993,1099
17.505,776
17.5107,1526
17.5165,1437
17.5222,645
17.5279,1242
17.5336,1087
17.5394,1182
17.5451,1104
17.5508,524
17.5565,1046
17.5622,919
17.568,918
17.5737,1060
17.5794,1239
17.5851,1279
17.5909,1033
17.5966,881
17.6023,1009
17.608,899
17.6137,907
17.6195,1191
17.6252,1314
17.6309,965
17.6366,738
17.6424,1097
17.6481,1178
17.6538,1276
17.6595,1286
17.6652,928
17.671,790
17.6767,1275
17.6824,1042
17.6881,1087
17.6939,1095
17.6996,1075
17.7053,1200
17.711,1189
17.7167,956
17.7225,752
17.7282,1324
17.7339,1554
17.7396,1376
17.7454,1129
17.7511,1091
17.7568,963
17.7625,1359
17.7682,703
17.7739,983
17.7797,1165
17.7854,1038
17.7911,1460
17.7968,1247
17.8026,1459
17.8083,944
17.814,1572
17.8197,1285
17.8255,1190
17.8312,1576
17.8369,1246
17.8426,1297
17.8483,1034
17.8541,1358
17.8598,1389
17.8655,1455
17.8712,1177
17.877,1118
17.8827,958
17.8884,853
17.8941,1351
17.8998,1069
17.9056,1419
17.9113,2149
17.917,2391
17.9227,2325
17.9285,2218
17.9342,1563
17.9399,1184
17.9456,1546
17.9513,1178
17.9571,1746
17.9628,1477
17.9685,1552
17.9742,1115
17.98,1012
17.9857,847
17.9914,1404
17.9971,1027
18.0028,1152
18.0086,931
18.0143,1477
18.02,1643
18.0257,1980
18.0314,1005
18.0372,1359
18.0429,1477
18.0486,1600
18.0543,1430
18.0601,1026
18.0658,1675
18.0715,1743
18.0772,1295
18.0829,1323
18.0887,1631
18.0944,1537
18.1001,1459
18.1058,1486
18.1116,1535
18.1173,1130
18.123,1178
18.1287,1548
18.1344,1889
18.1402,1893
18.1459,1339
18.1516,1434
18.1573,1474
18.1631,1667
18.1688,1664
18.1745,1627
18.1802,1825
18.1859,1624
18.1916,1864
18.1974,1733
18.2031,1457
18.2088,1905
18.2145,1798
18.2203,1784
18.226,2194
18.2317,1514
18.2374,1661
18.2432,1736
18.2489,1368
18.2546,1488
18.2603,1871
18.266,1515
18.2718,1589
18.2775,1689
18.2832,1274
18.2889,1874
18.2947,1740
18.3004,2096
18.3061,1630
18.3118,1520
18.3175,2002
18.3233,1955
18.329,1623
18.3347,1891
18.3404,1961
18.3462,2068
18.3519,1748
18.3576,2253
18.3633,2836
18.369,3743
18.3748,2549
18.3805,1787
18.3862,2102
18.3919,1978
18.3977,1817
18.4034,1593
18.4091,2011
18.4148,1954
18.4205,1430
18.4263,2665
18.432,2203
18.4377,1728
18.4434,1280
18.4491,2126
18.4549,1842
18.4606,1591
18.4663,2774
18.472,2286
18.4778,2084
18.4835,2044
18.4892,2009
18.4949,2029
18.5007,2079
18.5064,1429
18.5121,1694
18.5178,2052
18.5235,2170
18.5293,1775
18.535,2289
18.5407,2325
18.5464,2418
18.5521,1843
18.5579,2048
18.5636,2377
18.5693,1956
18.575,2607
18.5808,2357
18.5865,2065
18.5922,2321
18.5979,2549
18.6036,2332
18.6094,2404
18.6151,2373
18.6208,2245
18.6265,2711
18.6323,2520
18.638,2026
18.6437,2298
18.6494,2804
18.6551,1947
18.6609,2056
18.6666,2315
18.6723,2347
18.678,2271
18.6838,1687
18.6895,2820
18.6952,1870
18.7009,2289
18.7066,2033
18.7124,2397
18.7181,2031
18.7238,2478
18.7295,3790
18.7353,6894
18.741,13355
18.7467,20082
18.7524,22336
18.7581,18832
18.7639,11838
18.7696,6906
18.7753,4722
18.781,3899
18.7867,4121
18.7925,3042
18.7982,3218
18.8039,2666
18.8096,4197
18.8154,2850
18.8211,2904
18.8268,2661
18.8325,3014
18.8382,2350
18.844,3893
18.8497,2475
18.8554,3229
18.8611,2951
18.8668,2420
18.8726,2757
18.8783,3205
18.884,2995
18.8897,2896
18.8955,2611
18.9012,2415
18.9069,2959
18.9126,2428
18.9184,3280
18.9241,2971
18.9298,3355
18.9355,2428
18.9412,3033
18.947,2646
18.9527,2842
18.9584,3119
18.9641,2815
18.9699,3690
18.9756,3208
18.9813,3081
18.987,2900
18.9927,2674
18.9985,2709
19.0042,3746
19.0099,3467
19.0156,3150
19.0213,3319
19.0271,3012
19.0328,3525
19.0385,3566
19.0442,3019
19.05,3649
19.0557,3543
19.0614,2920
19.0671,3261
19.0728,3491
19.0786,3018
19.0843,3752
19.09,3388
19.0957,2657
19.1015,3714
19.1072,3397
19.1129,2995
19.1186,3276
19.1243,3397
19.1301,3254
19.1358,3713
19.1415,3027
19.1472,4362
19.153,2509
19.1587,3782
19.1644,3995
19.1701,4011
19.1758,3332
19.1816,3299
19.1873,4618
19.193,4248
19.1987,3758
19.2045,2752
19.2102,4441
19.2159,3974
19.2216,4382
19.2273,4041
19.2331,3939
19.2388,3080
19.2445,3498
19.2502,3222
19.256,3397
19.2617,3774
19.2674,3406
19.2731,3607
19.2788,3059
19.2845,3684
19.2903,3089
19.296,2610
19.3017,3890
19.3074,3455
19.3132,4256
19.3189,3426
19.3246,3950
19.3303,3663
19.3361,4358
19.3418,3354
19.3475,3692
19.3532,3884
19.3589,4588
19.3647,4267
19.3704,3266
19.3761,3275
19.3818,4439
19.3876,3592
19.3933,3395
19.399,4344
19.4047,4378
19.4104,3936
19.4162,4598
19.4219,6197
19.4276,4568
19.4333,5214
19.4391,5134
19.4448,5214
19.4505,4894
19.4562,4187
19.4619,5251
19.4677,4877
19.4734,4441
19.4791,4420
19.4848,4899
19.4906,5321
19.4963,3780
19.502,4469
19.5077,4083
19.5134,4940
19.5192,4694
19.5249,4592
19.5306,4602
19.5363,4411
19.542,4551
19.5478,4197
19.5535,4382
19.5592,4390
19.5649,4074
19.5707,4697
19.5764,4847
19.5821,4869
19.5878,4844
19.5935,4880
19.5993,5186
19.605,5542
19.6107,4444
19.6164,4391
19.6222,4603
19.6279,5262
19.6336,4807
19.6393,5044
19.645,4790
19.6508,5056
19.6565,5780
19.6622,5598
19.6679,5995
19.6737,5271
19.6794,4810
19.6851,4510
19.6908,5557
19.6965,5215
19.7022,4505
19.708,4755
19.7137,5544
19.7194,5784
19.7251,5419
19.7309,4897
19.7366,5566
19.7423,5265
19.748,5448
19.7538,4980
19.7595,4962
19.7652,5354
19.7709,4897
19.7767,6166
19.7824,6300
19.7881,6177
19.7938,5371
19.7995,5983
19.8053,5621
19.811,5476
19.8167,5632
19.8224,6029
19.8281,5693
19.8339,4738
19.8396,5452
19.8453,5666
19.851,5626
19.8568,5848
19.8625,5701
19.8682,5465
19.8739,5713
19.8796,6103
19.8854,5084
19.8911,5626
19.8968,4985
19.9025,5548
19.9083,6140
19.914,5851
19.9197,6267
19.9254,5602
19.9311,6549
19.9369,5908
19.9426,5649
19.9483,6049
19.954,6747
19.9598,5766
19.9655,6535
19.9712,5411
19.9769,6214
19.9826,6537
19.9884,6935
19.9941,6316
19.9998,7014
20.0055,6730
20.0113,5548
20.017,6542
20.0227,5977
20.0284,6923
20.0341,6422
20.0399,6070
20.0456,6815
20.0513,6677
20.057,6394
20.0627,6317
20.0685,6076
20.0742,6803
20.0799,6583
20.0856,6577
20.0914,7527
20.0971,7148
20.1028,6559
20.1085,6385
20.1142,6972
20.12,7499
20.1257,6775
20.1314,6923
20.1371,6904
20.1428,7022
20.1486,6899
20.1543,6842
20.16,7109
20.1657,8276
20.1715,6698
20.1772,7460
20.1829,7313
20.1886,7466
20.1944,8038
20.2001,7421
20.2058,7903
20.2115,7001
20.2172,6877
20.223,7540
20.2287,6561
20.2344,7843
20.2401,7243
20.2459,7138
20.2516,8443
20.2573,6724
20.263,7211
20.2687,7222
20.2745,6144
20.2802,8059
20.2859,6425
20.2916,8316
20.2973,8091
20.3031,8108
20.3088,7441
20.3145,7603
20.3202,7196
20.326,7526
20.3317,8188
20.3374,8532
20.3431,8030
20.3488,8099
20.3546,8722
20.3603,8050
20.366,8042
20.3717,8376
20.3775,8094
20.3832,8312
20.3889,8434
20.3946,8946
20.4003,8329
20.4061,8781
20.4118,8121
20.4175,8333
20.4232,8381
20.429,8707
20.4347,9556
20.4404,8363
20.4461,9453
20.4518,9164
20.4576,8642
20.4633,9345
20.469,8519
20.4747,9023
20.4805,9266
20.4862,8928
20.4919,8902
20.4976,8992
20.5033,8677
20.5091,9830
20.5148,9001
20.5205,9277
20.5262,8215
20.532,9740
20.5377,9822
20.5434,9687
20.5491,9670
20.5548,8999
20.5605,9866
20.5663,8363
20.572,9144
20.5777,9297
20.5834,9239
20.5892,9693
20.5949,10251
20.6006,9266
20.6063,10162
20.6121,9597
20.6178,10357
20.6235,9828
20.6292,9210
20.6349,10183
20.6407,9469
20.6464,8645
20.6521,10056
20.6578,9667
20.6636,9896
20.6693,10946
20.675,10207
20.6807,11221
20.6864,10784
20.6922,10680
20.6979,9682
20.7036,9764
20.7093,10253
20.7151,9739
20.7208,11010
20.7265,10669
20.7322,10475
20.7379,10197
20.7437,10226
20.7494,11115
20.7551,10048
20.7608,11005
20.7666,10036
20.7723,11836
20.778,10427
20.7837,11331
20.7894,11027
20.7952,11147
20.8009,11120
20.8066,11030
20.8123,11575
20.818,10547
20.8238,11643
20.8295,12357
20.8352,10535
20.8409,12632
20.8467,10644
20.8524,12706
20.8581,11536
20.8638,12441
20.8695,11396
20.8753,11343
20.881,10496
20.8867,13244
20.8924,12113
20.8982,12408
20.9039,12334
20.9096,11574
20.9153,12728
20.921,12712
20.9268,12539
20.9325,12450
20.9382,11830
20.9439,11642
20.9497,11735
20.9554,12169
20.9611,12637
20.9668,12798
20.9725,13011
20.9783,12554
20.984,13355
20.9897,14298
20.9954,12717
21.0012,14056
21.0069,12772
21.0126,13259
21.0183,12821
21.024,14229
21.0298,13803
21.0355,13564
21.0412,12925
21.0469,14610
21.0526,13489
21.0584,13351
21.0641,13425
21.0698,13036
21.0755,13261
21.0813,14663
21.087,12746
21.0927,12893
21.0984,13874
21.1041,13941
21.1099,14246
21.1156,13587
21.1213,13321
21.127,14067
21.1328,13204
21.1385,13986
21.1442,13725
21.1499,15633
21.1556,13828
21.1614,15876
21.1671,13339
21.1728,13952
21.1785,14336
21.1843,14640
21.19,16275
21.1957,13896
21.2014,14517
21.2071,15012
21.2129,15258
21.2186,15798
21.2243,14410
21.23,15230
21.2357,16237
21.2415,15414
21.2472,16222
21.2529,15088
21.2586,15421
21.2644,15210
21.2701,15266
21.2758,16202
21.2815,14799
21.2873,16067
21.293,16643
21.2987,15287
21.3044,15495
21.3101,15388
21.3159,15830
21.3216,16503
21.3273,16311
21.333,18718
21.3387,17144
21.3445,16352
21.3502,16931
21.3559,17642
21.3616,17388
21.3674,17626
21.3731,18780
21.3788,17115
21.3845,17743
21.3902,17859
21.396,17306
21.4017,17581
21.4074,16795
21.4131,17048
21.4189,17968
21.4246,16956
21.4303,17593
21.436,16682
21.4417,17329
21.4475,17683
21.4532,17097
21.4589,18423
21.4646,17388
21.4704,17781
21.4761,18112
21.4818,18138
21.4875,18580
21.4932,17997
21.499,16147
21.5047,20010
21.5104,19647
21.5161,18710
21.5219,17807
21.5276,17024
21.5333,18337
21.539,18109
21.5447,17664
21.5505,19090
21.5562,18580
21.5619,19558
21.5676,17805
21.5733,19246
21.5791,19432
21.5848,18216
21.5905,18630
21.5962,20216
21.602,18100
21.6077,18112
21.6134,18499
21.6191,19643
21.6248,19497
21.6306,20607
21.6363,20542
21.642,18966
21.6477,19259
21.6534,20472
21.6592,20431
21.6649,20174
21.6706,20349
21.6763,21355
21.6821,22338
21.6878,21522
21.6935,21839
21.6992,19843
21.705,20227
21.7107,20422
21.7164,22193
21.7221,20052
21.7278,20387
21.7336,21489
21.7393,21875
21.745,22338
21.7507,22006
21.7565,21871
21.7622,22050
21.7679,20788
21.7736,20356
21.7793,21432
21.7851,22815
21.7908,22130
21.7965,22727
21.8022,22581
21.8079,22054
21.8137,23622
21.8194,23118
21.8251,22179
21.8308,23078
21.8366,23821
21.8423,21653
21.848,22499
21.8537,23878
21.8594,22925
21.8652,22215
21.8709,23699
21.8766,22601
21.8823,23465
21.8881,23663
21.8938,23599
21.8995,23865
21.9052,23826
21.9109,24669
21.9167,24492
21.9224,23637
21.9281,23762
21.9338,25219
21.9396,23742
21.9453,24272
21.951,23712
21.9567,25764
21.9624,23391
21.9682,24123
21.9739,24840
21.9796,24834
21.9853,23677
21.9911,24752
21.9968,22693
22.0025,24984
22.0082,24314
22.0139,24857
22.0197,25508
22.0254,26643
22.0311,25172
22.0368,26121
22.0426,24910
22.0483,25282
22.054,25704
22.0597,27549
22.0654,26437
22.0711,28008
22.0769,26658
22.0826,26660
22.0883,27483
22.094,27261
22.0998,27767
22.1055,28071
22.1112,25789
22.1169,28744
22.1227,26972
22.1284,26401
22.1341,27745
22.1398,27587
22.1455,26760
22.1513,29508
22.157,27008
22.1627,28457
22.1684,27758
22.1742,28463
22.1799,28157
22.1856,30209
22.1913,27360
22.197,27107
22.2028,28294
22.2085,29381
22.2142,28467
22.2199,28402
22.2257,29276
22.2314,29093
22.2371,29194
22.2428,30155
22.2485,27649
22.2543,29139
22.26,29195
22.2657,29415
22.2714,28708
22.2772,29981
22.2829,31569
22.2886,28569
22.2943,29258
22.3,28855
22.3058,30554
22.3115,29991
22.3172,30461
22.3229,30850
22.3286,28456
22.3344,29665
22.3401,31949
22.3458,30350
22.3515,29583
22.3573,29633
22.363,29997
22.3687,32813
22.3744,32040
22.3801,31804
22.3859,32663
22.3916,29783
22.3973,32963
22.403,32334
22.4088,31899
22.4145,31841
22.4202,33585
22.4259,34689
22.4316,30652
22.4374,30992
22.4431,34801
22.4488,31712
22.4545,34887
22.4603,32951
22.466,32463
22.4717,34481
22.4774,33280
22.4831,32276
22.4888,32177
22.4946,32912
22.5003,34715
22.506,31628
22.5118,33828
22.5175,35608
22.5232,34378
22.5289,34767
22.5346,33557
22.5404,32527
22.5461,34629
22.5518,32165
22.5575,35431
22.5632,34304
22.569,34124
22.5747,34140
22.5804,36907
22.5861,33919
22.5919,36012
22.5976,35971
22.6033,34915
22.609,34729
22.6147,33531
22.6205,36790
22.6262,35605
22.6319,36369
22.6376,38136
22.6434,35114
22.6491,36709
22.6548,36025
22.6605,35700
22.6662,35295
22.672,35636
22.6777,36824
22.6834,36982
22.6891,35090
22.6949,37303
22.7006,33636
22.7063,35264
22.712,37177
22.7177,36236
22.7235,36674
22.7292,36205
22.7349,38536
22.7406,36330
22.7464,36434
22.7521,36693
22.7578,38538
22.7635,37849
22.7692,37676
22.775,38474
22.7807,38384
22.7864,38767
22.7921,37454
22.7979,39399
22.8036,38028
22.8093,37696
22.815,35066
22.8207,39052
22.8265,39143
22.8322,36998
22.8379,39841
22.8436,40931
22.8493,38674
22.8551,38823
22.8608,39383
22.8665,37966
22.8722,38667
22.878,39851
22.8837,39439
22.8894,39784
22.8951,39148
22.9008,41447
22.9066,39850
22.9123,40102
22.918,40228
22.9237,41277
22.9295,38674
22.9352,39998
22.9409,42089
22.9466,39473
22.9523,39366
22.9581,40766
22.9638,40666
22.9695,41035
22.9752,39947
22.981,41884
22.9867,43223
22.9924,43250
22.9981,41947
23.0038,39633
23.0096,43380
23.0153,41419
23.021,40247
23.0267,41573
23.0325,41589
23.0382,44106
23.0439,41180
23.0496,43224
23.0553,41221
23.0611,44864
23.0668,43609
23.0725,41753
23.0782,41527
23.0839,44079
23.0897,42979
23.0954,43331
23.1011,42590
23.1068,43353
23.1126,45311
23.1183,43719
23.124,44239
23.1297,42970
23.1354,44107
23.1412,43808
23.1469,43219
23.1526,44577
23.1583,44191
23.1641,43954
23.1698,44743
23.1755,44895
23.1812,45994
23.1869,44686
23.1927,44915
23.1984,43903
23.2041,43319
23.2098,43113
23.2156,44013
23.2213,42818
23.227,46420
23.2327,44588
23.2384,45880
23.2442,44210
23.2499,43766
23.2556,43921
23.2613,48612
23.2671,47097
23.2728,48010
23.2785,44760
23.2842,42629
23.2899,44983
23.2957,45672
23.3014,46157
23.3071,46923
23.3128,44141
23.3186,46069
23.3243,45758
23.33,49200
23.3357,46380
23.3414,46413
23.3472,45097
23.3529,45336
23.3586,47684
23.3643,47479
23.37,48980
23.3758,47729
23.3815,46847
23.3872,46649
23.3929,48062
23.3987,47812
23.4044,47301
23.4101,48351
23.4158,47939
23.4215,48563
23.4273,45122
23.433,49398
23.4387,49910
23.4444,47331
23.4502,48632
23.4559,47171
23.4616,48434
23.4673,46612
23.473,48488
23.4788,47816
23.4845,46960
23.4902,46160
23.4959,48808
23.5017,49186
23.5074,49519
23.5131,49915
23.5188,49538
23.5245,46570
23.5303,48628
23.536,46554
23.5417,48929
23.5474,49073
23.5532,49039
23.5589,48770
23.5646,50576
23.5703,49402
23.576,50513
23.5818,49388
23.5875,50149
23.5932,46874
23.5989,50672
23.6046,46858
23.6104,48431
23.6161,48855
23.6218,50692
23.6275,52398
23.6333,49282
23.639,50314
23.6447,50428
23.6504,49616
23.6561,51779
23.6619,48136
23.6676,51773
23.6733,47745
23.679,48275
23.6848,49379
23.6905,50968
23.6962,50409
23.7019,50185
23.7076,51175
23.7134,49208
23.7191,50662
23.7248,50494
23.7305,50472
23.7363,51567
23.742,52459
23.7477,48775
23.7534,52142
23.7591,54485
23.7649,51308
23.7706,50636
23.7763,51879
23.782,53514
23.7878,55716
23.7935,51310
23.7992,51028
23.8049,51079
23.8106,50017
23.8164,51589
23.8221,52418
23.8278,53613
23.8335,51966
23.8392,52799
23.845,51269
23.8507,52301
23.8564,52489
23.8621,49028
23.8679,49591
23.8736,51396
23.8793,48356
23.885,52164
23.8907,50980
23.8965,52340
23.9022,51052
23.9079,49868
23.9136,52069
23.9194,51920
23.9251,50937
23.9308,50693
23.9365,49313
23.9422,49564
23.948,52076
23.9537,52390
23.9594,50188
23.9651,50487
23.9709,50530
23.9766,50942
23.9823,51530
23.988,52028
23.9937,51207
23.9995,49984
24.0052,49845
24.0109,50631
24.0166,49844
24.0223,50634
24.0281,52008
24.0338,51420
24.0395,51506
24.0452,50312
24.051,47632
24.0567,50913
24.0624,52085
24.0681,50260
24.0739,51600
24.0796,50039
24.0853,51025
24.091,50210
24.0967,50386
24.1025,50246
24.1082,51767
24.1139,52099
24.1196,48670
24.1253,50209
24.1311,51371
24.1368,50784
24.1425,52215
24.1482,49928
24.154,50815
24.1597,51899
24.1654,49735
24.1711,51327
24.1768,52477
24.1826,53175
24.1883,51587
24.194,52074
24.1997,50783
24.2055,49940
24.2112,49972
24.2169,52117
24.2226,52830
24.2283,51839
24.2341,53807
24.2398,50297
24.2455,51202
24.2512,49885
24.257,51940
24.2627,50684
24.2684,51818
24.2741,51177
24.2798,52523
24.2856,49833
24.2913,54171
24.297,50717
24.3027,50703
24.3085,49893
24.3142,48903
24.3199,52940
24.3256,51253
24.3313,53346
24.3371,52675
24.3428,51862
24.3485,53770
24.3542,52578
24.3599,50580
24.3657,51230
24.3714,51395
24.3771,51844
24.3828,52518
24.3886,50812
24.3943,52700
24.4,53754
24.4057,50352
24.4114,50575
24.4172,51682
24.4229,49700
24.4286,50657
24.4343,53456
24.4401,52356
24.4458,53023
24.4515,51092
24.4572,52621
24.4629,53807
24.4687,52927
24.4744,51884
24.4801,51343
24.4858,52421
24.4916,52362
24.4973,51628
24.503,50450
24.5087,52179
24.5144,52011
24.5202,52027
24.5259,51003
24.5316,53371
24.5373,49933
24.5431,53985
24.5488,51110
24.5545,50848
24.5602,50113
24.5659,50928
24.5717,53257
24.5774,49402
24.5831,50745
24.5888,50748
24.5945,53001
24.6003,50274
24.606,51553
24.6117,53233
24.6174,53530
24.6232,49924
24.6289,49997
24.6346,52772
24.6403,52084
24.646,52864
24.6518,51360
24.6575,50815
24.6632,53679
24.6689,50863
24.6747,53795
24.6804,51291
24.6861,50751
24.6918,52722
24.6975,51729
24.7033,52960
24.709,50419
24.7147,51957
24.7204,53289
24.7262,50564
24.7319,52093
24.7376,51448
24.7433,51377
24.749,51221
24.7548,50232
24.7605,51106
24.7662,50213
24.7719,50031
24.7777,51994
24.7834,50102
24.7891,52640
24.7948,53286
24.8005,50410
24.8063,52112
24.812,52537
24.8177,52010
24.8234,47602
24.8292,51023
24.8349,51925
24.8406,50315
24.8463,51478
24.852,54763
24.8578,51185
24.8635,52459
24.8692,52990
24.8749,53714
24.8806,52178
24.8864,52689
24.8921,49579
24.8978,51880
24.9035,52336
24.9093,50814
24.915,52900
24.9207,52103
24.9264,54394
24.9321,50505
24.9379,53164
24.9436,50517
24.9493,49529
24.955,49517
24.9608,51159
24.9665,49027
24.9722,49790
24.9779,51013
24.9836,50764
24.9894,50514
24.9951,51004
