C:\MSDCHEM\1\DATA\SERINA\20180424_NLTAB_FRESH\SLR2_12_OleA_1.d 24 Apr 18   1:24 pm
Start of data points
4.09267,1260
4.0984,1241
4.10412,978
4.10983,1286
4.11557,1291
4.12128,1359
4.127,986
4.13273,967
4.13845,1533
4.14417,1183
4.1499,1562
4.15562,1636
4.16133,1123
4.16707,1352
4.17278,1010
4.1785,944
4.18423,1359
4.18995,1374
4.19567,1344
4.20138,816
4.20712,1229
4.21283,897
4.21855,908
4.22428,757
4.23,1157
4.23572,1586
4.24145,1074
4.24717,992
4.25288,854
4.25862,1000
4.26433,1355
4.27005,1019
4.27578,941
4.2815,731
4.28722,1274
4.29295,614
4.29867,1053
4.30438,1073
4.31012,827
4.31583,1092
4.32155,814
4.32727,731
4.333,941
4.33872,963
4.34443,775
4.35017,975
4.35588,1054
4.3616,990
4.36733,1028
4.37305,1399
4.37877,1040
4.3845,1186
4.39022,953
4.39593,878
4.40167,1097
4.40738,835
4.4131,1139
4.41883,1059
4.42455,627
4.43027,1230
4.436,1133
4.44172,1050
4.44743,1246
4.45315,806
4.45888,1098
4.4646,731
4.47032,1112
4.47605,1089
4.48177,912
4.48748,1088
4.49322,1293
4.49893,879
4.50465,1741
4.51038,983
4.5161,1361
4.52182,1036
4.52755,1055
4.53327,849
4.53898,1031
4.54472,1006
4.55043,973
4.55615,921
4.56188,1676
4.5676,1392
4.57332,988
4.57903,909
4.58477,1289
4.59048,1168
4.5962,1114
4.60193,1029
4.60765,846
4.61337,976
4.6191,964
4.62482,1153
4.63053,1164
4.63627,1072
4.64198,1231
4.6477,1223
4.65343,1296
4.65915,1211
4.66487,1050
4.6706,915
4.67632,763
4.68203,1098
4.68777,956
4.69348,1180
4.6992,896
4.70492,1493
4.71065,1377
4.71637,1063
4.72208,1469
4.72782,1025
4.73353,1017
4.73925,1281
4.74498,1363
4.7507,762
4.75642,922
4.76215,1052
4.76787,1244
4.77358,956
4.77932,692
4.78503,1337
4.79075,1286
4.79648,1040
4.8022,954
4.80792,793
4.81365,1468
4.81937,1566
4.82508,1087
4.8308,1006
4.83653,957
4.84225,1210
4.84797,1051
4.8537,1094
4.85942,1059
4.86513,1499
4.87087,899
4.87658,821
4.8823,537
4.88803,923
4.89375,1014
4.89947,917
4.9052,1131
4.91092,1160
4.91663,1302
4.92237,1120
4.92808,924
4.9338,650
4.93953,442
4.94525,694
4.95097,487
4.95668,770
4.96242,921
4.96813,431
4.97385,880
4.97958,720
4.9853,454
4.99102,599
4.99675,865
5.00247,994
5.00818,1071
5.01392,743
5.01963,649
5.02535,465
5.03108,653
5.0368,907
5.04252,935
5.04825,684
5.05397,770
5.05968,588
5.06542,500
5.07113,569
5.07685,594
5.08257,621
5.0883,634
5.09402,680
5.09973,663
5.10547,795
5.11118,766
5.1169,978
5.12263,866
5.12835,687
5.13407,573
5.1398,558
5.14552,800
5.15123,485
5.15697,702
5.16268,512
5.1684,595
5.17413,887
5.17985,742
5.18557,587
5.1913,694
5.19702,609
5.20273,495
5.20845,1047
5.21418,791
5.2199,338
5.22562,928
5.23135,763
5.23707,571
5.24278,873
5.24852,898
5.25423,730
5.25995,722
5.26568,1043
5.2714,1022
5.27712,420
5.28285,1038
5.28857,606
5.29428,726
5.30002,762
5.30573,847
5.31145,1243
5.31718,1398
5.3229,1114
5.32862,1176
5.33433,1614
5.34007,1087
5.34578,743
5.3515,697
5.35723,810
5.36295,1128
5.36867,891
5.3744,854
5.38012,1150
5.38583,1307
5.39157,1190
5.39728,985
5.403,1110
5.40873,903
5.41445,854
5.42017,1009
5.4259,1291
5.43162,730
5.43733,870
5.44307,730
5.44878,564
5.4545,573
5.46022,560
5.46595,576
5.47167,796
5.47738,602
5.48312,1107
5.48883,695
5.49455,1059
5.50028,465
5.506,1285
5.51172,592
5.51745,619
5.52317,688
5.52888,1020
5.53462,876
5.54033,336
5.54605,465
5.55178,503
5.5575,532
5.56322,566
5.56895,657
5.57467,688
5.58038,580
5.5861,559
5.59183,631
5.59755,547
5.60327,298
5.609,614
5.61472,774
5.62043,706
5.62617,563
5.63188,371
5.6376,657
5.64333,973
5.64905,699
5.65477,848
5.6605,566
5.66622,629
5.67193,588
5.67767,947
5.68338,902
5.6891,684
5.69483,735
5.70055,453
5.70627,787
5.71198,1204
5.71772,578
5.72343,829
5.72915,502
5.73488,569
5.7406,877
5.74632,745
5.75205,831
5.75777,689
5.76348,469
5.76922,505
5.77493,627
5.78065,512
5.78638,395
5.7921,409
5.79782,640
5.80355,512
5.80927,366
5.81498,433
5.82072,752
5.82643,625
5.83215,728
5.83787,633
5.8436,517
5.84932,706
5.85503,651
5.86077,251
5.86648,550
5.8722,562
5.87793,346
5.88365,392
5.88937,567
5.8951,417
5.90082,575
5.90653,686
5.91227,1079
5.91798,567
5.9237,1076
5.92943,1178
5.93515,1115
5.94087,635
5.9466,1344
5.95232,1112
5.95803,781
5.96377,759
5.96948,887
5.9752,967
5.98092,402
5.98665,655
5.99237,673
5.99808,1067
6.00382,938
6.00953,973
6.01525,905
6.02098,1032
6.0267,595
6.03242,519
6.03815,927
6.04387,528
6.04958,918
6.05532,583
6.06103,673
6.06675,657
6.07248,721
6.0782,811
6.08392,546
6.08965,603
6.09537,628
6.10108,616
6.1068,565
6.11253,764
6.11825,893
6.12397,376
6.1297,285
6.13542,268
6.14113,551
6.14687,779
6.15258,575
6.1583,539
6.16403,308
6.16975,608
6.17547,472
6.1812,339
6.18692,571
6.19263,437
6.19837,439
6.20408,630
6.2098,514
6.21553,391
6.22125,340
6.22697,740
6.23268,386
6.23842,571
6.24413,415
6.24985,413
6.25558,324
6.2613,347
6.26702,517
6.27275,408
6.27847,373
6.28418,530
6.28992,517
6.29563,480
6.30135,725
6.30708,566
6.3128,524
6.31852,624
6.32425,639
6.32997,394
6.33568,502
6.34142,462
6.34713,477
6.35285,385
6.35857,524
6.3643,521
6.37002,611
6.37573,301
6.38147,524
6.38718,705
6.3929,607
6.39863,507
6.40435,698
6.41007,479
6.4158,560
6.42152,501
6.42723,548
6.43297,435
6.43868,511
6.4444,569
6.45013,570
6.45585,340
6.46157,504
6.4673,213
6.47302,425
6.47873,528
6.48445,458
6.49018,887
6.4959,446
6.50162,735
6.50735,268
6.51307,291
6.51878,681
6.52452,581
6.53023,559
6.53595,441
6.54168,427
6.5474,571
6.55312,215
6.55885,347
6.56457,387
6.57028,541
6.57602,463
6.58173,767
6.58745,441
6.59318,323
6.5989,600
6.60462,552
6.61033,414
6.61607,595
6.62178,399
6.6275,385
6.63323,472
6.63895,456
6.64467,576
6.6504,560
6.65612,374
6.66183,370
6.66757,592
6.67328,359
6.679,336
6.68473,276
6.69045,313
6.69617,406
6.7019,688
6.70762,709
6.71333,408
6.71907,433
6.72478,440
6.7305,418
6.73622,671
6.74195,301
6.74767,1088
6.75338,1281
6.75912,1344
6.76483,1420
6.77055,1922
6.77628,1757
6.782,1836
6.78772,1144
6.79345,1117
6.79917,1006
6.80488,798
6.81062,889
6.81633,411
6.82205,407
6.82778,452
6.8335,998
6.83922,559
6.84495,830
6.85067,447
6.85638,983
6.8621,547
6.86783,626
6.87355,627
6.87927,585
6.885,534
6.89072,620
6.89643,654
6.90217,391
6.90788,395
6.9136,604
6.91933,418
6.92505,1080
6.93077,606
6.9365,699
6.94222,584
6.94793,536
6.95367,500
6.95938,329
6.9651,430
6.97083,273
6.97655,381
6.98227,527
6.98798,270
6.99372,326
6.99943,387
7.00515,496
7.01088,217
7.0166,327
7.02232,505
7.02805,472
7.03377,354
7.03948,191
7.04522,479
7.05093,449
7.05665,444
7.06238,247
7.0681,336
7.07382,285
7.07955,814
7.08527,520
7.09098,432
7.09672,343
7.10243,240
7.10815,684
7.11387,431
7.1196,461
7.12532,564
7.13103,324
7.13677,343
7.14248,312
7.1482,371
7.15393,740
7.15965,194
7.16537,346
7.1711,540
7.17682,574
7.18253,466
7.18827,313
7.19398,420
7.1997,297
7.20543,307
7.21115,391
7.21687,470
7.2226,453
7.22832,303
7.23403,348
7.23975,740
7.24548,403
7.2512,448
7.25692,421
7.26265,185
7.26837,330
7.27408,624
7.27982,282
7.28553,453
7.29125,219
7.29698,334
7.3027,347
7.30842,253
7.31415,484
7.31987,373
7.32558,490
7.33132,438
7.33703,234
7.34275,406
7.34848,427
7.3542,478
7.35992,646
7.36563,222
7.37137,349
7.37708,604
7.3828,320
7.38853,863
7.39425,651
7.39997,484
7.4057,268
7.41142,337
7.41713,576
7.42287,253
7.42858,354
7.4343,561
7.44003,355
7.44575,290
7.45147,527
7.4572,540
7.46292,327
7.46863,407
7.47437,540
7.48008,406
7.4858,438
7.49152,533
7.49725,418
7.50297,310
7.50868,281
7.51442,450
7.52013,507
7.52585,332
7.53158,265
7.5373,381
7.54302,463
7.54875,344
7.55447,605
7.56018,598
7.56592,339
7.57163,239
7.57735,421
7.58308,273
7.5888,422
7.59452,217
7.60025,456
7.60597,520
7.61168,530
7.6174,347
7.62313,468
7.62885,217
7.63457,312
7.6403,478
7.64602,452
7.65173,365
7.65747,230
7.66318,344
7.6689,658
7.67463,479
7.68035,187
7.68607,734
7.6918,509
7.69752,273
7.70323,322
7.70897,374
7.71468,393
7.7204,392
7.72613,337
7.73185,401
7.73757,400
7.74328,234
7.74902,432
7.75473,293
7.76045,219
7.76618,518
7.7719,490
7.77762,261
7.78335,217
7.78907,232
7.79478,471
7.80052,307
7.80623,211
7.81195,290
7.81768,439
7.8234,473
7.82912,285
7.83485,361
7.84057,426
7.84628,483
7.85202,425
7.85773,589
7.86345,228
7.86917,265
7.8749,486
7.88062,340
7.88633,520
7.89207,446
7.89778,311
7.9035,413
7.90923,284
7.91495,236
7.92067,269
7.9264,502
7.93212,226
7.93783,217
7.94357,267
7.94928,529
7.955,472
7.96073,443
7.96645,301
7.97217,561
7.9779,232
7.98362,549
7.98933,221
7.99505,403
8.00078,235
8.0065,525
8.01222,287
8.01795,333
8.02367,485
8.02938,405
8.03512,241
8.04083,231
8.04655,242
8.05228,192
8.058,520
8.06372,355
8.06945,297
8.07517,450
8.08088,535
8.08662,532
8.09233,442
8.09805,722
8.10378,303
8.1095,705
8.11522,203
8.12093,306
8.12667,331
8.13238,157
8.1381,392
8.14383,185
8.14955,370
8.15527,417
8.161,525
8.16672,307
8.17243,274
8.17817,453
8.18388,284
8.1896,337
8.19533,245
8.20105,295
8.20677,244
8.2125,310
8.21822,249
8.22393,412
8.22967,477
8.23538,262
8.2411,182
8.24682,465
8.25255,664
8.25827,253
8.26398,293
8.26972,169
8.27543,591
8.28115,510
8.28688,331
8.2926,292
8.29832,257
8.30405,573
8.30977,499
8.31548,467
8.32122,350
8.32693,413
8.33265,442
8.33838,395
8.3441,409
8.34982,674
8.35555,720
8.36127,1433
8.36698,1402
8.3727,1021
8.37843,1049
8.38415,281
8.38987,232
8.3956,779
8.40132,269
8.40703,219
8.41277,693
8.41848,230
8.4242,202
8.42993,391
8.43565,415
8.44137,339
8.4471,330
8.45282,275
8.45853,307
8.46427,281
8.46998,302
8.4757,450
8.48143,406
8.48715,533
8.49287,515
8.49858,502
8.50432,328
8.51003,301
8.51575,359
8.52148,577
8.5272,520
8.53292,246
8.53865,237
8.54437,283
8.55008,435
8.55582,381
8.56153,541
8.56725,376
8.57298,285
8.5787,369
8.58442,185
8.59015,399
8.59587,285
8.60158,172
8.60732,337
8.61303,389
8.61875,616
8.62447,0
8.6302,511
8.63592,225
8.64163,606
8.64737,287
8.65308,488
8.6588,590
8.66453,793
8.67025,566
8.67597,247
8.6817,394
8.68742,520
8.69313,232
8.69887,271
8.70458,182
8.7103,254
8.71603,462
8.72175,419
8.72747,247
8.7332,524
8.73892,296
8.74463,285
8.75035,241
8.75608,322
8.7618,267
8.76752,195
8.77325,226
8.77897,237
8.78468,347
8.79042,194
8.79613,203
8.80185,306
8.80758,478
8.8133,384
8.81902,492
8.82475,280
8.83047,217
8.83618,446
8.84192,286
8.84763,337
8.85335,545
8.85908,212
8.8648,292
8.87052,163
8.87623,0
8.88197,208
8.88768,203
8.8934,330
8.89913,0
8.90485,250
8.91057,298
8.9163,511
8.92202,974
8.92773,1012
8.93347,1063
8.93918,1294
8.9449,627
8.95063,815
8.95635,596
8.96207,565
8.9678,327
8.97352,234
8.97923,246
8.98497,383
8.99068,237
8.9964,306
9.00212,439
9.00785,236
9.01357,724
9.01928,227
9.02502,395
9.03073,218
9.03645,720
9.04218,282
9.0479,723
9.05362,666
9.05935,1423
9.06507,4024
9.07078,7608
9.07652,12435
9.08223,16213
9.08795,17069
9.09368,11869
9.0994,8269
9.10512,4233
9.11085,2552
9.11657,1496
9.12228,1322
9.128,946
9.13373,585
9.13945,568
9.14517,233
9.1509,629
9.15662,161
9.16233,204
9.16807,369
9.17378,217
9.1795,860
9.18523,545
9.19095,766
9.19667,912
9.2024,509
9.20812,196
9.21383,373
9.21957,274
9.22528,162
9.231,193
9.23673,267
9.24245,151
9.24817,191
9.25388,234
9.25962,287
9.26533,455
9.27105,356
9.27678,490
9.2825,396
9.28822,369
9.29395,415
9.29967,567
9.30538,452
9.31112,221
9.31683,159
9.32255,152
9.32828,342
9.334,0
9.33972,195
9.34545,285
9.35117,220
9.35688,163
9.36262,252
9.36833,282
9.37405,248
9.37977,354
9.3855,182
9.39122,273
9.39693,254
9.40267,394
9.40838,350
9.4141,290
9.41983,178
9.42555,0
9.43127,360
9.437,569
9.44272,684
9.44843,323
9.45417,311
9.45988,390
9.4656,461
9.47133,372
9.47705,192
9.48277,0
9.4885,319
9.49422,0
9.49993,206
9.50567,347
9.51138,177
9.5171,206
9.52282,165
9.52855,375
9.53427,0
9.53998,0
9.54572,279
9.55143,184
9.55715,205
9.56288,429
9.5686,284
9.57432,266
9.58005,464
9.58577,260
9.59148,200
9.59722,337
9.60293,339
9.60865,209
9.61438,276
9.6201,389
9.62582,351
9.63155,259
9.63727,329
9.64298,187
9.6487,176
9.65443,236
9.66015,167
9.66587,280
9.6716,343
9.67732,163
9.68303,510
9.68877,382
9.69448,215
9.7002,276
9.70593,281
9.71165,366
9.71737,181
9.7231,411
9.72882,231
9.73453,360
9.74027,402
9.74598,253
9.7517,348
9.75743,258
9.76315,285
9.76887,376
9.77458,228
9.78032,268
9.78603,178
9.79175,317
9.79748,185
9.8032,504
9.80892,198
9.81465,152
9.82037,292
9.82608,0
9.83182,232
9.83753,181
9.84325,375
9.84898,313
9.8547,360
9.86042,154
9.86615,200
9.87187,252
9.87758,280
9.88332,590
9.88903,187
9.89475,183
9.90047,265
9.9062,538
9.91192,531
9.91763,558
9.92337,452
9.92908,222
9.9348,220
9.94053,169
9.94625,433
9.95197,178
9.9577,428
9.96342,196
9.96913,0
9.97487,178
9.98058,165
9.9863,0
9.99203,311
9.99775,228
10.0035,362
10.0092,194
10.0149,372
10.0206,569
10.0264,168
10.0321,258
10.0378,428
10.0435,229
10.0493,218
10.055,166
10.0607,0
10.0664,501
10.0721,337
10.0779,242
10.0836,460
10.0893,205
10.095,443
10.1008,386
10.1065,353
10.1122,0
10.1179,291
10.1236,189
10.1294,152
10.1351,358
10.1408,172
10.1465,327
10.1522,348
10.158,326
10.1637,288
10.1694,300
10.1751,446
10.1809,242
10.1866,205
10.1923,190
10.198,185
10.2037,266
10.2095,439
10.2152,281
10.2209,209
10.2266,296
10.2324,0
10.2381,244
10.2438,225
10.2495,188
10.2552,381
10.261,196
10.2667,948
10.2724,2162
10.2781,2646
10.2839,2331
10.2896,1124
10.2953,1184
10.301,920
10.3067,902
10.3125,155
10.3182,203
10.3239,594
10.3296,407
10.3354,323
10.3411,0
10.3468,317
10.3525,514
10.3582,439
10.364,270
10.3697,172
10.3754,199
10.3811,237
10.3869,390
10.3926,245
10.3983,222
10.404,0
10.4097,378
10.4155,463
10.4212,448
10.4269,260
10.4326,464
10.4383,0
10.4441,185
10.4498,548
10.4555,173
10.4612,0
10.467,418
10.4727,227
10.4784,0
10.4841,244
10.4898,350
10.4956,164
10.5013,301
10.507,301
10.5127,0
10.5185,0
10.5242,342
10.5299,228
10.5356,446
10.5413,188
10.5471,217
10.5528,193
10.5585,0
10.5642,160
10.57,824
10.5757,930
10.5814,1257
10.5871,1339
10.5928,1079
10.5986,594
10.6043,360
10.61,438
10.6157,517
10.6215,648
10.6272,153
10.6329,170
10.6386,0
10.6443,363
10.6501,779
10.6558,856
10.6615,980
10.6672,1016
10.6729,476
10.6787,390
10.6844,339
10.6901,544
10.6958,246
10.7016,241
10.7073,173
10.713,172
10.7187,204
10.7244,0
10.7302,0
10.7359,230
10.7416,0
10.7473,350
10.7531,416
10.7588,183
10.7645,155
10.7702,0
10.7759,231
10.7817,154
10.7874,257
10.7931,236
10.7988,0
10.8046,623
10.8103,0
10.816,360
10.8217,208
10.8274,346
10.8332,368
10.8389,364
10.8446,1787
10.8503,4358
10.8561,7350
10.8618,8425
10.8675,7639
10.8732,5294
10.8789,3897
10.8847,2784
10.8904,1865
10.8961,1711
10.9018,1182
10.9075,751
10.9133,973
10.919,675
10.9247,502
10.9304,524
10.9362,872
10.9419,749
10.9476,168
10.9533,0
10.959,611
10.9648,1257
10.9705,1424
10.9762,1410
10.9819,1230
10.9877,635
10.9934,216
10.9991,193
11.0048,382
11.0105,212
11.0163,339
11.022,417
11.0277,182
11.0334,178
11.0392,190
11.0449,205
11.0506,0
11.0563,0
11.062,0
11.0678,392
11.0735,247
11.0792,375
11.0849,355
11.0907,170
11.0964,266
11.1021,227
11.1078,410
11.1135,222
11.1193,1408
11.125,5842
11.1307,13126
11.1364,23443
11.1422,29599
11.1479,28612
11.1536,18401
11.1593,8519
11.165,2714
11.1708,1067
11.1765,339
11.1822,340
11.1879,362
11.1936,379
11.1994,317
11.2051,166
11.2108,174
11.2165,215
11.2223,225
11.228,350
11.2337,185
11.2394,198
11.2451,424
11.2509,476
11.2566,390
11.2623,543
11.268,586
11.2738,214
11.2795,230
11.2852,261
11.2909,0
11.2966,507
11.3024,164
11.3081,151
11.3138,418
11.3195,394
11.3253,175
11.331,246
11.3367,0
11.3424,0
11.3481,467
11.3539,579
11.3596,194
11.3653,205
11.371,196
11.3768,208
11.3825,0
11.3882,314
11.3939,151
11.3996,443
11.4054,407
11.4111,369
11.4168,406
11.4225,344
11.4282,410
11.434,673
11.4397,665
11.4454,1450
11.4511,1451
11.4569,1608
11.4626,996
11.4683,909
11.474,492
11.4797,560
11.4855,648
11.4912,0
11.4969,436
11.5026,373
11.5084,367
11.5141,440
11.5198,253
11.5255,230
11.5312,439
11.537,354
11.5427,0
11.5484,406
11.5541,0
11.5599,408
11.5656,440
11.5713,453
11.577,206
11.5827,506
11.5885,393
11.5942,322
11.5999,316
11.6056,173
11.6114,371
11.6171,0
11.6228,182
11.6285,215
11.6342,208
11.64,201
11.6457,450
11.6514,173
11.6571,243
11.6628,415
11.6686,0
11.6743,267
11.68,168
11.6857,150
11.6915,182
11.6972,173
11.7029,352
11.7086,0
11.7143,0
11.7201,182
11.7258,310
11.7315,211
11.7372,177
11.743,169
11.7487,213
11.7544,567
11.7601,163
11.7658,186
11.7716,546
11.7773,0
11.783,473
11.7887,0
11.7945,355
11.8002,180
11.8059,0
11.8116,372
11.8173,157
11.8231,206
11.8288,261
11.8345,0
11.8402,272
11.846,357
11.8517,470
11.8574,261
11.8631,272
11.8688,423
11.8746,199
11.8803,0
11.886,476
11.8917,232
11.8975,156
11.9032,0
11.9089,220
11.9146,238
11.9203,0
11.9261,207
11.9318,0
11.9375,566
11.9432,234
11.9489,376
11.9547,204
11.9604,0
11.9661,0
11.9718,233
11.9776,177
11.9833,0
11.989,383
11.9947,174
12.0004,236
12.0062,163
12.0119,172
12.0176,220
12.0233,0
12.0291,217
12.0348,370
12.0405,409
12.0462,0
12.0519,397
12.0577,228
12.0634,217
12.0691,210
12.0748,0
12.0806,234
12.0863,0
12.092,0
12.0977,220
12.1034,333
12.1092,155
12.1149,297
12.1206,0
12.1263,337
12.1321,332
12.1378,425
12.1435,219
12.1492,424
12.1549,369
12.1607,0
12.1664,0
12.1721,242
12.1778,460
12.1835,259
12.1893,181
12.195,0
12.2007,238
12.2064,281
12.2122,0
12.2179,0
12.2236,195
12.2293,198
12.235,358
12.2408,239
12.2465,164
12.2522,341
12.2579,0
12.2637,505
12.2694,157
12.2751,430
12.2808,160
12.2865,189
12.2923,179
12.298,377
12.3037,205
12.3094,418
12.3152,0
12.3209,217
12.3266,0
12.3323,0
12.338,312
12.3438,206
12.3495,423
12.3552,0
12.3609,229
12.3667,162
12.3724,158
12.3781,185
12.3838,320
12.3895,166
12.3953,176
12.401,395
12.4067,167
12.4124,168
12.4181,203
12.4239,186
12.4296,341
12.4353,152
12.441,343
12.4468,238
12.4525,169
12.4582,0
12.4639,158
12.4696,188
12.4754,199
12.4811,0
12.4868,360
12.4925,267
12.4983,170
12.504,191
12.5097,0
12.5154,0
12.5211,369
12.5269,222
12.5326,501
12.5383,185
12.544,174
12.5498,0
12.5555,0
12.5612,249
12.5669,427
12.5726,150
12.5784,0
12.5841,0
12.5898,161
12.5955,0
12.6013,0
12.607,373
12.6127,0
12.6184,222
12.6241,361
12.6299,201
12.6356,198
12.6413,274
12.647,194
12.6528,220
12.6585,1285
12.6642,2409
12.6699,1884
12.6756,1473
12.6814,378
12.6871,560
12.6928,383
12.6985,229
12.7042,441
12.71,1993
12.7157,3032
12.7214,1885
12.7271,1933
12.7329,896
12.7386,360
12.7443,200
12.75,179
12.7557,441
12.7615,218
12.7672,180
12.7729,0
12.7786,240
12.7844,206
12.7901,343
12.7958,245
12.8015,443
12.8072,318
12.813,0
12.8187,0
12.8244,154
12.8301,164
12.8359,154
12.8416,303
12.8473,219
12.853,284
12.8587,197
12.8645,158
12.8702,158
12.8759,166
12.8816,396
12.8874,200
12.8931,244
12.8988,0
12.9045,0
12.9102,159
12.916,341
12.9217,213
12.9274,151
12.9331,248
12.9388,1376
12.9446,4432
12.9503,10497
12.956,18566
12.9617,19561
12.9675,15398
12.9732,8415
12.9789,3131
12.9846,1288
12.9903,890
12.9961,0
13.0018,0
13.0075,0
13.0132,350
13.019,338
13.0247,215
13.0304,271
13.0361,680
13.0418,1058
13.0476,618
13.0533,2113
13.059,936
13.0647,955
13.0705,605
13.0762,291
13.0819,212
13.0876,0
13.0933,181
13.0991,0
13.1048,1024
13.1105,2396
13.1162,3832
13.122,4804
13.1277,4044
13.1334,3970
13.1391,2678
13.1448,1994
13.1506,1315
13.1563,1218
13.162,633
13.1677,682
13.1735,541
13.1792,180
13.1849,461
13.1906,502
13.1963,1369
13.2021,2686
13.2078,3950
13.2135,3287
13.2192,2116
13.2249,2048
13.2307,575
13.2364,1042
13.2421,755
13.2478,911
13.2536,495
13.2593,352
13.265,277
13.2707,169
13.2764,407
13.2822,168
13.2879,340
13.2936,154
13.2993,197
13.3051,158
13.3108,329
13.3165,210
13.3222,204
13.3279,0
13.3337,0
13.3394,153
13.3451,361
13.3508,351
13.3566,0
13.3623,325
13.368,160
13.3737,402
13.3794,310
13.3852,165
13.3909,426
13.3966,0
13.4023,392
13.4081,0
13.4138,330
13.4195,217
13.4252,156
13.4309,451
13.4367,201
13.4424,179
13.4481,345
13.4538,352
13.4595,0
13.4653,334
13.471,192
13.4767,190
13.4824,413
13.4882,0
13.4939,239
13.4996,231
13.5053,557
13.511,571
13.5168,158
13.5225,284
13.5282,437
13.5339,162
13.5397,163
13.5454,0
13.5511,337
13.5568,347
13.5625,0
13.5683,0
13.574,0
13.5797,0
13.5854,157
13.5912,225
13.5969,195
13.6026,400
13.6083,0
13.614,0
13.6198,0
13.6255,493
13.6312,207
13.6369,960
13.6427,949
13.6484,2008
13.6541,1158
13.6598,651
13.6655,488
13.6713,0
13.677,0
13.6827,232
13.6884,236
13.6941,185
13.6999,180
13.7056,0
13.7113,0
13.717,0
13.7228,430
13.7285,184
13.7342,362
13.7399,629
13.7456,208
13.7514,461
13.7571,218
13.7628,346
13.7685,173
13.7743,453
13.78,420
13.7857,259
13.7914,316
13.7971,203
13.8029,265
13.8086,176
13.8143,224
13.82,331
13.8258,461
13.8315,229
13.8372,0
13.8429,211
13.8486,255
13.8544,353
13.8601,177
13.8658,211
13.8715,381
13.8773,172
13.883,160
13.8887,364
13.8944,344
13.9001,326
13.9059,806
13.9116,203
13.9173,540
13.923,0
13.9288,228
13.9345,0
13.9402,246
13.9459,158
13.9516,652
13.9574,638
13.9631,0
13.9688,0
13.9745,221
13.9802,438
13.986,356
13.9917,255
13.9974,0
14.0031,170
14.0089,353
14.0146,0
14.0203,203
14.026,0
14.0317,408
14.0375,0
14.0432,165
14.0489,187
14.0546,572
14.0604,211
14.0661,178
14.0718,342
14.0775,215
14.0832,327
14.089,324
14.0947,153
14.1004,440
14.1061,0
14.1119,0
14.1176,0
14.1233,0
14.129,194
14.1347,410
14.1405,152
14.1462,159
14.1519,0
14.1576,228
14.1634,192
14.1691,219
14.1748,202
14.1805,434
14.1862,593
14.192,439
14.1977,0
14.2034,160
14.2091,437
14.2148,455
14.2206,408
14.2263,273
14.232,440
14.2377,166
14.2435,358
14.2492,332
14.2549,157
14.2606,173
14.2663,268
14.2721,0
14.2778,191
14.2835,156
14.2892,414
14.295,466
14.3007,0
14.3064,0
14.3121,0
14.3178,0
14.3236,307
14.3293,167
14.335,171
14.3407,341
14.3465,351
14.3522,236
14.3579,376
14.3636,378
14.3693,238
14.3751,480
14.3808,434
14.3865,207
14.3922,164
14.398,183
14.4037,188
14.4094,183
14.4151,369
14.4208,214
14.4266,251
14.4323,160
14.438,208
14.4437,171
14.4494,170
14.4552,214
14.4609,0
14.4666,449
14.4723,366
14.4781,228
14.4838,346
14.4895,206
14.4952,532
14.5009,850
14.5067,2203
14.5124,4960
14.5181,9403
14.5238,11453
14.5296,8806
14.5353,5021
14.541,2174
14.5467,795
14.5524,273
14.5582,360
14.5639,262
14.5696,499
14.5753,173
14.5811,213
14.5868,0
14.5925,198
14.5982,323
14.6039,185
14.6097,377
14.6154,173
14.6211,291
14.6268,0
14.6326,0
14.6383,188
14.644,230
14.6497,341
14.6554,424
14.6612,307
14.6669,609
14.6726,364
14.6783,178
14.6841,164
14.6898,542
14.6955,161
14.7012,362
14.7069,236
14.7127,417
14.7184,396
14.7241,204
14.7298,384
14.7355,0
14.7413,401
14.747,245
14.7527,0
14.7584,203
14.7642,0
14.7699,551
14.7756,154
14.7813,406
14.787,0
14.7928,758
14.7985,243
14.8042,210
14.8099,430
14.8157,505
14.8214,496
14.8271,482
14.8328,405
14.8385,584
14.8443,328
14.85,202
14.8557,533
14.8614,528
14.8672,401
14.8729,394
14.8786,369
14.8843,158
14.89,442
14.8958,185
14.9015,378
14.9072,247
14.9129,497
14.9187,397
14.9244,301
14.9301,462
14.9358,695
14.9415,476
14.9473,403
14.953,261
14.9587,234
14.9644,0
14.9701,367
14.9759,528
14.9816,465
14.9873,406
14.993,595
14.9988,0
15.0045,0
15.0102,392
15.0159,150
15.0216,470
15.0274,491
15.0331,248
15.0388,487
15.0445,403
15.0503,154
15.056,493
15.0617,0
15.0674,158
15.0731,0
15.0789,191
15.0846,394
15.0903,476
15.096,482
15.1018,239
15.1075,175
15.1132,204
15.1189,180
15.1246,448
15.1304,545
15.1361,165
15.1418,394
15.1475,196
15.1533,167
15.159,252
15.1647,168
15.1704,376
15.1761,506
15.1819,421
15.1876,394
15.1933,247
15.199,181
15.2047,384
15.2105,447
15.2162,417
15.2219,244
15.2276,150
15.2334,437
15.2391,155
15.2448,408
15.2505,449
15.2562,628
15.262,641
15.2677,330
15.2734,340
15.2791,399
15.2849,493
15.2906,240
15.2963,369
15.302,230
15.3077,425
15.3135,242
15.3192,628
15.3249,276
15.3306,514
15.3364,609
15.3421,551
15.3478,478
15.3535,246
15.3592,458
15.365,555
15.3707,421
15.3764,248
15.3821,291
15.3879,260
15.3936,278
15.3993,452
15.405,585
15.4107,242
15.4165,359
15.4222,235
15.4279,693
15.4336,561
15.4394,664
15.4451,182
15.4508,442
15.4565,254
15.4622,392
15.468,189
15.4737,409
15.4794,404
15.4851,217
15.4908,213
15.4966,385
15.5023,191
15.508,523
15.5137,806
15.5195,333
15.5252,419
15.5309,246
15.5366,514
15.5423,212
15.5481,512
15.5538,326
15.5595,457
15.5652,261
15.571,253
15.5767,412
15.5824,494
15.5881,504
15.5938,401
15.5996,0
15.6053,463
15.611,891
15.6167,859
15.6225,1190
15.6282,792
15.6339,602
15.6396,200
15.6453,185
15.6511,168
15.6568,695
15.6625,371
15.6682,448
15.674,242
15.6797,380
15.6854,450
15.6911,258
15.6968,835
15.7026,887
15.7083,690
15.714,575
15.7197,488
15.7254,451
15.7312,171
15.7369,499
15.7426,597
15.7483,420
15.7541,270
15.7598,673
15.7655,615
15.7712,765
15.7769,396
15.7827,469
15.7884,353
15.7941,443
15.7998,273
15.8056,600
15.8113,604
15.817,494
15.8227,232
15.8284,607
15.8342,400
15.8399,167
15.8456,373
15.8513,485
15.8571,385
15.8628,170
15.8685,269
15.8742,323
15.8799,407
15.8857,497
15.8914,642
15.8971,469
15.9028,456
15.9086,1522
15.9143,3412
15.92,5084
15.9257,6272
15.9314,4566
15.9372,4088
15.9429,1709
15.9486,1240
15.9543,807
15.96,930
15.9658,577
15.9715,607
15.9772,480
15.9829,530
15.9887,645
15.9944,336
16.0001,591
16.0058,488
16.0115,506
16.0173,372
16.023,935
16.0287,507
16.0344,564
16.0402,516
16.0459,316
16.0516,571
16.0573,598
16.063,457
16.0688,418
16.0745,708
16.0802,653
16.0859,766
16.0917,175
16.0974,459
16.1031,390
16.1088,635
16.1145,577
16.1202,422
16.126,545
16.1317,556
16.1374,0
16.1431,708
16.1489,663
16.1546,518
16.1603,263
16.166,509
16.1717,718
16.1775,647
16.1832,873
16.1889,562
16.1946,537
16.2004,482
16.2061,584
16.2118,710
16.2175,722
16.2233,658
16.229,483
16.2347,825
16.2404,0
16.2461,638
16.2519,339
16.2576,484
16.2633,478
16.269,820
16.2748,669
16.2805,615
16.2862,592
16.2919,760
16.2976,565
16.3034,450
16.3091,673
16.3148,1089
16.3205,800
16.3263,535
16.332,704
16.3377,549
16.3434,729
16.3491,592
16.3548,595
16.3606,553
16.3663,520
16.372,732
16.3777,395
16.3835,445
16.3892,824
16.3949,698
16.4006,837
16.4064,819
16.4121,807
16.4178,416
16.4235,630
16.4293,401
16.435,349
16.4407,903
16.4464,600
16.4521,401
16.4579,845
16.4636,677
16.4693,1021
16.475,847
16.4807,993
16.4865,717
16.4922,488
16.4979,624
16.5036,433
16.5094,712
16.5151,554
16.5208,449
16.5265,518
16.5322,650
16.538,531
16.5437,638
16.5494,870
16.5551,909
16.5608,951
16.5666,819
16.5723,503
16.578,674
16.5837,552
16.5894,806
16.5952,547
16.6009,793
16.6066,657
16.6123,670
16.6181,587
16.6238,1091
16.6295,861
16.6352,658
16.641,449
16.6467,929
16.6524,917
16.6581,961
16.6639,595
16.6696,704
16.6753,890
16.681,1076
16.6867,910
16.6925,1119
16.6982,1169
16.7039,813
16.7096,532
16.7153,799
16.7211,924
16.7268,822
16.7325,397
16.7382,490
16.744,934
16.7497,783
16.7554,683
16.7611,317
16.7668,1053
16.7726,722
16.7783,916
16.784,922
16.7897,722
16.7954,962
16.8012,969
16.8069,1039
16.8126,866
16.8183,500
16.8241,314
16.8298,423
16.8355,419
16.8412,1013
16.847,1014
16.8527,817
16.8584,549
16.8641,528
16.8698,870
16.8756,571
16.8813,614
16.887,558
16.8927,510
16.8985,767
16.9042,857
16.9099,953
16.9156,685
16.9213,517
16.9271,583
16.9328,663
16.9385,647
16.9442,909
16.95,1181
16.9557,808
16.9614,1236
16.9671,695
16.9728,592
16.9785,1234
16.9843,881
16.99,933
16.9957,1067
17.0014,1341
17.0072,867
17.0129,1179
17.0186,1449
17.0243,1184
17.03,811
17.0358,925
17.0415,832
17.0472,777
17.0529,878
17.0587,802
17.0644,697
17.0701,1033
17.0758,897
17.0816,924
17.0873,915
17.093,1209
17.0987,1273
17.1044,543
17.1102,748
17.1159,899
17.1216,1051
17.1273,834
17.1331,839
17.1388,1218
17.1445,970
17.1502,773
17.1559,1043
17.1617,1393
17.1674,1228
17.1731,1077
17.1788,693
17.1846,1500
17.1903,1890
17.196,1999
17.2017,4650
17.2074,4909
17.2131,4110
17.2189,3886
17.2246,2750
17.2303,1670
17.236,1512
17.2418,1404
17.2475,1218
17.2532,884
17.2589,1137
17.2647,944
17.2704,1020
17.2761,767
17.2818,1092
17.2875,1219
17.2933,1441
17.299,1304
17.3047,951
17.3104,804
17.3162,1116
17.3219,1438
17.3276,1242
17.3333,845
17.339,1285
17.3448,907
17.3505,1070
17.3562,1486
17.3619,861
17.3677,1117
17.3734,1313
17.3791,1444
17.3848,1522
17.3905,1495
17.3962,937
17.402,1450
17.4077,1012
17.4134,1274
17.4191,1407
17.4249,1487
17.4306,849
17.4363,1162
17.442,1313
17.4477,1257
17.4535,1368
17.4592,1119
17.4649,1210
17.4706,1214
17.4764,1299
17.4821,1238
17.4878,1425
17.4935,1029
17.4993,1195
17.505,1278
17.5107,1118
17.5164,1467
17.5221,719
17.5279,1303
17.5336,1439
17.5393,1826
17.545,1638
17.5508,1118
17.5565,1434
17.5622,838
17.5679,1092
17.5736,1838
17.5794,1035
17.5851,1264
17.5908,1064
17.5965,1122
17.6023,1039
17.608,1086
17.6137,1483
17.6194,1850
17.6251,1414
17.6309,1158
17.6366,1427
17.6423,1527
17.648,1681
17.6538,1430
17.6595,1433
17.6652,1141
17.6709,1446
17.6766,1443
17.6824,935
17.6881,1257
17.6938,967
17.6995,1332
17.7052,1506
17.711,1248
17.7167,1507
17.7224,1329
17.7281,1348
17.7339,1811
17.7396,1502
17.7453,1117
17.751,1034
17.7567,1050
17.7625,1390
17.7682,1489
17.7739,1398
17.7796,1193
17.7854,1519
17.7911,1592
17.7968,1544
17.8025,1458
17.8082,1084
17.814,1735
17.8197,1591
17.8254,1364
17.8311,1397
17.8369,1475
17.8426,1153
17.8483,1418
17.854,1412
17.8597,1180
17.8654,1737
17.8712,1282
17.8769,1674
17.8826,1608
17.8883,1560
17.8941,1671
17.8998,1514
17.9055,2198
17.9112,2689
17.917,3760
17.9227,4156
17.9284,3133
17.9341,2550
17.9399,1768
17.9456,1473
17.9513,2116
17.957,2068
17.9627,1970
17.9685,1650
17.9742,1623
17.9799,1660
17.9856,1875
17.9913,1487
17.9971,1667
18.0028,1746
18.0085,1596
18.0142,1584
18.02,1710
18.0257,1559
18.0314,1849
18.0371,1512
18.0428,1660
18.0486,1342
18.0543,1859
18.06,1877
18.0657,2211
18.0715,2006
18.0772,2183
18.0829,1681
18.0886,1691
18.0943,2181
18.1001,1555
18.1058,1635
18.1115,1978
18.1172,1942
18.1229,2657
18.1287,2112
18.1344,1570
18.1401,1929
18.1458,2724
18.1516,2138
18.1573,1838
18.163,2150
18.1687,1910
18.1745,2225
18.1802,2088
18.1859,2214
18.1916,1744
18.1973,1811
18.2031,2209
18.2088,2107
18.2145,1978
18.2202,2377
18.226,2076
18.2317,1942
18.2374,1770
18.2431,1399
18.2488,2337
18.2546,1497
18.2603,1759
18.266,2353
18.2717,1862
18.2774,2786
18.2832,2101
18.2889,2218
18.2946,2797
18.3003,2266
18.3061,2076
18.3118,2086
18.3175,2238
18.3232,1693
18.3289,2252
18.3347,2391
18.3404,2217
18.3461,2812
18.3518,2069
18.3576,3235
18.3633,4910
18.369,6017
18.3747,6144
18.3804,5100
18.3862,4037
18.3919,2770
18.3976,2401
18.4033,2692
18.4091,2445
18.4148,1900
18.4205,2065
18.4262,2421
18.4319,2534
18.4377,2776
18.4434,2232
18.4491,2464
18.4548,2561
18.4606,2716
18.4663,2260
18.472,2537
18.4777,2400
18.4834,2032
18.4892,2747
18.4949,2145
18.5006,2715
18.5063,2277
18.512,2930
18.5178,2763
18.5235,2696
18.5292,2701
18.5349,2294
18.5406,3416
18.5464,2921
18.5521,2931
18.5578,2739
18.5635,2483
18.5693,1985
18.575,2406
18.5807,2234
18.5864,2969
18.5922,2586
18.5979,2972
18.6036,3286
18.6093,2240
18.615,2902
18.6208,3823
18.6265,2791
18.6322,2971
18.6379,2938
18.6437,3054
18.6494,2502
18.6551,2414
18.6608,2806
18.6665,2404
18.6723,2551
18.678,2862
18.6837,2890
18.6894,2894
18.6952,3413
18.7009,3384
18.7066,3118
18.7123,3134
18.718,2539
18.7238,3303
18.7295,4114
18.7352,8816
18.7409,17831
18.7466,26444
18.7524,30458
18.7581,28453
18.7638,16500
18.7695,9316
18.7753,6507
18.781,4623
18.7867,4424
18.7924,3794
18.7981,3255
18.8039,4433
18.8096,3594
18.8153,4300
18.821,3047
18.8268,4293
18.8325,3999
18.8382,4170
18.8439,3976
18.8496,3741
18.8554,4156
18.8611,3608
18.8668,3398
18.8725,4764
18.8783,3227
18.884,3937
18.8897,3899
18.8954,2954
18.9011,4012
18.9069,3005
18.9126,3950
18.9183,3595
18.924,4291
18.9298,4477
18.9355,3956
18.9412,3926
18.9469,3667
18.9526,3720
18.9583,3681
18.9641,3678
18.9698,3827
18.9755,3419
18.9812,3738
18.987,5080
18.9927,4283
18.9984,3838
19.0041,3956
19.0099,4139
19.0156,3536
19.0213,3885
19.027,3791
19.0327,3861
19.0385,4237
19.0442,3425
19.0499,5119
19.0556,3989
19.0614,3833
19.0671,5033
19.0728,4678
19.0785,4069
19.0842,4297
19.09,3979
19.0957,4179
19.1014,4045
19.1071,4031
19.1129,4292
19.1186,5117
19.1243,4038
19.13,4296
19.1357,3451
19.1415,4516
19.1472,4230
19.1529,3657
19.1586,5163
19.1644,4183
19.1701,3976
19.1758,3583
19.1815,4338
19.1872,4046
19.193,4174
19.1987,3759
19.2044,4465
19.2101,4408
19.2159,3774
19.2216,4742
19.2273,4700
19.233,4413
19.2387,4114
19.2445,3961
19.2502,4724
19.2559,4551
19.2616,4247
19.2673,4558
19.2731,3893
19.2788,5295
19.2845,5066
19.2902,4512
19.296,5054
19.3017,5856
19.3074,5335
19.3131,5026
19.3188,4205
19.3246,4553
19.3303,4872
19.336,4535
19.3417,4979
19.3475,5053
19.3532,4949
19.3589,5041
19.3646,4886
19.3703,5217
19.376,4834
19.3818,5687
19.3875,4845
19.3932,5300
19.3989,4993
19.4047,5524
19.4104,5067
19.4161,5502
19.4218,5568
19.4276,5392
19.4333,7149
19.439,8023
19.4447,8161
19.4505,8386
19.4562,7640
19.4619,5310
19.4676,6200
19.4733,5916
19.4791,5792
19.4848,5565
19.4905,5787
19.4962,5708
19.5019,5102
19.5077,5270
19.5134,6019
19.5191,5982
19.5248,5557
19.5306,5389
19.5363,5917
19.542,5545
19.5477,5795
19.5534,5656
19.5592,5380
19.5649,5239
19.5706,4990
19.5763,5338
19.5821,5961
19.5878,5967
19.5935,5658
19.5992,4675
19.6049,4894
19.6107,5110
19.6164,4906
19.6221,6649
19.6278,5783
19.6336,6296
19.6393,6143
19.645,5940
19.6507,5943
19.6564,5371
19.6622,4912
19.6679,5908
19.6736,5722
19.6793,5295
19.6851,6010
19.6908,5606
19.6965,5912
19.7022,5216
19.7079,6652
19.7137,6726
19.7194,6407
19.7251,6540
19.7308,6065
19.7366,5191
19.7423,6612
19.748,6501
19.7537,6868
19.7594,6515
19.7652,6012
19.7709,6423
19.7766,6536
19.7823,6675
19.788,6292
19.7938,7192
19.7995,7130
19.8052,6873
19.8109,5985
19.8166,7537
19.8224,6865
19.8281,6365
19.8338,6756
19.8395,6664
19.8453,6569
19.851,7207
19.8567,6925
19.8624,7759
19.8682,6344
19.8739,6666
19.8796,6487
19.8853,7144
19.891,6599
19.8968,7058
19.9025,6513
19.9082,7100
19.9139,7841
19.9197,6476
19.9254,6565
19.9311,7256
19.9368,7200
19.9425,6242
19.9483,7305
19.954,6935
19.9597,7269
19.9654,7139
19.9712,7232
19.9769,6672
19.9826,7768
19.9883,7484
19.994,6784
19.9998,7612
20.0055,8217
20.0112,7801
20.0169,7451
20.0226,6922
20.0284,8084
20.0341,7157
20.0398,7137
20.0455,7062
20.0513,8130
20.057,8386
20.0627,7561
20.0684,8244
20.0741,7909
20.0799,7701
20.0856,8151
20.0913,7842
20.097,7381
20.1028,7508
20.1085,8496
20.1142,8901
20.1199,8529
20.1256,8852
20.1314,8068
20.1371,8449
20.1428,8315
20.1485,7276
20.1543,9252
20.16,8496
20.1657,7323
20.1714,8272
20.1771,8446
20.1829,8157
20.1886,8615
20.1943,8517
20.2,9378
20.2058,8360
20.2115,8398
20.2172,8126
20.2229,8807
20.2286,10312
20.2344,8326
20.2401,8846
20.2458,9857
20.2515,8258
20.2572,8751
20.263,9579
20.2687,9003
20.2744,8423
20.2801,8436
20.2859,9295
20.2916,8794
20.2973,9277
20.303,8852
20.3087,9089
20.3145,8474
20.3202,9700
20.3259,9284
20.3316,10835
20.3374,8938
20.3431,9508
20.3488,9621
20.3545,9706
20.3602,9594
20.366,10203
20.3717,10761
20.3774,10123
20.3831,9299
20.3889,9388
20.3946,10621
20.4003,10623
20.406,9877
20.4117,9581
20.4175,10327
20.4232,9865
20.4289,10613
20.4346,11115
20.4404,12062
20.4461,13526
20.4518,12569
20.4575,12764
20.4632,11264
20.469,11433
20.4747,11188
20.4804,9720
20.4861,10809
20.4918,9960
20.4976,11199
20.5033,9537
20.509,10954
20.5147,11122
20.5205,11178
20.5262,10851
20.5319,10361
20.5376,10833
20.5433,11614
20.5491,12286
20.5548,10887
20.5605,11676
20.5662,12033
20.572,11431
20.5777,12239
20.5834,11991
20.5891,11624
20.5948,10843
20.6006,11551
20.6063,10889
20.612,11888
20.6177,10222
20.6235,12197
20.6292,11548
20.6349,11764
20.6406,12191
20.6463,11163
20.6521,11343
20.6578,12526
20.6635,12734
20.6692,13413
20.675,11180
20.6807,11666
20.6864,10925
20.6921,12944
20.6978,13094
20.7036,12547
20.7093,12172
20.715,11986
20.7207,12976
20.7265,13969
20.7322,13817
20.7379,13216
20.7436,11627
20.7493,13388
20.7551,13047
20.7608,11585
20.7665,11716
20.7722,12191
20.7779,13010
20.7837,14146
20.7894,12739
20.7951,12218
20.8008,14450
20.8066,12746
20.8123,13519
20.818,12296
20.8237,12975
20.8294,13251
20.8352,13178
20.8409,15138
20.8466,14905
20.8523,14103
20.8581,12906
20.8638,14545
20.8695,13077
20.8752,15424
20.8809,14458
20.8867,14517
20.8924,15225
20.8981,15762
20.9038,15444
20.9095,15136
20.9153,14644
20.921,14889
20.9267,13854
20.9324,15032
20.9382,15431
20.9439,14842
20.9496,14520
20.9553,14029
20.9611,15054
20.9668,14581
20.9725,14674
20.9782,15685
20.9839,15042
20.9897,15523
20.9954,15382
21.0011,15305
21.0068,15384
21.0126,15620
21.0183,17163
21.024,17069
21.0297,15098
21.0354,16713
21.0412,17009
21.0469,15229
21.0526,16093
21.0583,17766
21.064,16107
21.0698,17127
21.0755,15420
21.0812,17180
21.0869,15911
21.0927,16471
21.0984,17180
21.1041,17656
21.1098,15236
21.1155,16117
21.1213,16028
21.127,16485
21.1327,16027
21.1384,15408
21.1442,16916
21.1499,16530
21.1556,17546
21.1613,17187
21.167,16584
21.1728,16748
21.1785,16993
21.1842,17489
21.1899,18632
21.1957,17788
21.2014,19259
21.2071,18205
21.2128,17340
21.2185,19029
21.2243,18115
21.23,18799
21.2357,19436
21.2414,17926
21.2472,18790
21.2529,17537
21.2586,18840
21.2643,18019
21.27,18057
21.2758,19567
21.2815,18106
21.2872,19454
21.2929,18682
21.2986,19345
21.3044,19869
21.3101,19222
21.3158,19573
21.3215,19251
21.3272,20454
21.333,18752
21.3387,19042
21.3444,17993
21.3501,19486
21.3559,18648
21.3616,20412
21.3673,19709
21.373,21213
21.3788,21228
21.3845,22302
21.3902,21250
21.3959,21069
21.4016,21893
21.4074,21887
21.4131,21456
21.4188,20308
21.4245,22604
21.4303,21079
21.436,21001
21.4417,22484
21.4474,21424
21.4531,22401
21.4589,21023
21.4646,20486
21.4703,20914
21.476,21365
21.4818,21268
21.4875,21818
21.4932,23395
21.4989,23581
21.5046,22520
21.5104,20722
21.5161,22683
21.5218,22866
21.5275,20812
21.5332,21720
21.539,21182
21.5447,23422
21.5504,21755
21.5561,22642
21.5619,22976
21.5676,22726
21.5733,22089
21.579,22500
21.5847,24074
21.5905,23663
21.5962,22780
21.6019,23989
21.6076,24963
21.6134,22796
21.6191,23340
21.6248,24889
21.6305,23609
21.6362,23927
21.642,23046
21.6477,22874
21.6534,24314
21.6591,25314
21.6649,23583
21.6706,25073
21.6763,23253
21.682,26423
21.6877,23904
21.6935,24932
21.6992,25202
21.7049,25026
21.7106,25966
21.7164,24654
21.7221,25258
21.7278,24603
21.7335,26853
21.7392,26266
21.7449,26270
21.7507,25651
21.7564,26230
21.7621,26615
21.7679,24540
21.7736,25893
21.7793,26891
21.785,26113
21.7907,25721
21.7965,27120
21.8022,27696
21.8079,25843
21.8136,25253
21.8193,27013
21.8251,25655
21.8308,28098
21.8365,25346
21.8422,26628
21.848,27555
21.8537,28546
21.8594,27873
21.8651,27120
21.8708,25624
21.8766,28075
21.8823,27946
21.888,26761
21.8937,28018
21.8995,27248
21.9052,29162
21.9109,27422
21.9166,28812
21.9223,27910
21.9281,28987
21.9338,28680
21.9395,29670
21.9452,30460
21.951,28397
21.9567,31196
21.9624,29539
21.9681,27184
21.9738,29659
21.9796,29996
21.9853,29248
21.991,30307
21.9967,29598
22.0025,32117
22.0082,29846
22.0139,29922
22.0196,31342
22.0253,31359
22.0311,30717
22.0368,32695
22.0425,42818
22.0482,58560
22.0539,87661
22.0597,99876
22.0654,98048
22.0711,77063
22.0768,57313
22.0826,44941
22.0883,40488
22.094,37757
22.0997,37811
22.1054,35642
22.1112,33682
22.1169,36306
22.1226,35579
22.1283,34469
22.1341,33148
22.1398,35413
22.1455,33620
22.1512,33497
22.1569,33787
22.1626,36170
22.1684,35710
22.1741,35899
22.1798,36133
22.1856,34189
22.1913,36764
22.197,34576
22.2027,35490
22.2084,34109
22.2142,35632
22.2199,34490
22.2256,34518
22.2313,36342
22.2371,37245
22.2428,35165
22.2485,35012
22.2542,35876
22.2599,32945
22.2657,37000
22.2714,33180
22.2771,34937
22.2828,35926
22.2885,35272
22.2943,36821
22.3,36089
22.3057,35769
22.3114,35381
22.3172,37325
22.3229,37667
22.3286,33998
22.3343,36379
22.34,34607
22.3458,36553
22.3515,38384
22.3572,37163
22.3629,37654
22.3687,36809
22.3744,38308
22.3801,36439
22.3858,39459
22.3915,36819
22.3973,37640
22.403,38157
22.4087,38834
22.4144,38091
22.4202,36536
22.4259,37855
22.4316,39762
22.4373,37398
22.443,38461
22.4488,40524
22.4545,40166
22.4602,40378
22.4659,37138
22.4717,39133
22.4774,39223
22.4831,39596
22.4888,39970
22.4945,39233
22.5003,39424
22.506,40155
22.5117,38873
22.5174,41430
22.5232,39743
22.5289,41523
22.5346,39154
22.5403,38330
22.546,39100
22.5518,40004
22.5575,40168
22.5632,40516
22.5689,42444
22.5746,41926
22.5804,41343
22.5861,42626
22.5918,39544
22.5975,40037
22.6033,42846
22.609,41064
22.6147,43795
22.6204,44525
22.6261,41391
22.6319,43415
22.6376,42384
22.6433,43170
22.649,43190
22.6548,41566
22.6605,42707
22.6662,42582
22.6719,44055
22.6776,43532
22.6834,42991
22.6891,42969
22.6948,43060
22.7005,40838
22.7063,42940
22.712,42274
22.7177,45926
22.7234,43520
22.7291,42400
22.7349,44356
22.7406,45635
22.7463,44133
22.752,45239
22.7578,44681
22.7635,44897
22.7692,44312
22.7749,45331
22.7806,45510
22.7864,46238
22.7921,46166
22.7978,44778
22.8035,45203
22.8092,45062
22.815,47147
22.8207,46836
22.8264,47760
22.8321,46932
22.8379,45007
22.8436,45315
22.8493,44947
22.855,44692
22.8607,46001
22.8665,45911
22.8722,45052
22.8779,48714
22.8836,49266
22.8894,46446
22.8951,49682
22.9008,49915
22.9065,47538
22.9122,48133
22.918,47230
22.9237,48274
22.9294,48420
22.9351,49324
22.9409,47648
22.9466,47868
22.9523,48905
22.958,47456
22.9637,48042
22.9695,50376
22.9752,49501
22.9809,48113
22.9866,49271
22.9924,48424
22.9981,49145
23.0038,49421
23.0095,50516
23.0152,49584
23.021,49630
23.0267,48768
23.0324,50618
23.0381,51162
23.0438,50154
23.0496,52471
23.0553,48690
23.061,52231
23.0667,51543
23.0725,48382
23.0782,50576
23.0839,53429
23.0896,49958
23.0953,51514
23.1011,51111
23.1068,49217
23.1125,52296
23.1182,50837
23.124,50456
23.1297,50673
23.1354,52834
23.1411,54747
23.1468,50108
23.1526,50597
23.1583,52672
23.164,53117
23.1697,52700
23.1755,54091
23.1812,53447
23.1869,53083
23.1926,53525
23.1983,51848
23.2041,52317
23.2098,53489
23.2155,55273
23.2212,53260
23.227,52714
23.2327,54334
23.2384,52111
23.2441,51012
23.2498,54714
23.2555,53799
23.2613,54470
23.267,56667
23.2727,54227
23.2784,53590
23.2842,55259
23.2899,56126
23.2956,51611
23.3013,50690
23.3071,55276
23.3128,54365
23.3185,55652
23.3242,56540
23.3299,53858
23.3357,53992
23.3414,55187
23.3471,52792
23.3528,56098
23.3586,55006
23.3643,56080
23.37,55189
23.3757,55206
23.3814,55149
23.3872,54147
23.3929,55796
23.3986,56794
23.4043,56261
23.4101,57106
23.4158,55754
23.4215,57740
23.4272,56516
23.4329,55156
23.4387,55985
23.4444,57570
23.4501,55448
23.4558,55316
23.4616,56672
23.4673,56822
23.473,56296
23.4787,56912
23.4844,55986
23.4902,56655
23.4959,56573
23.5016,58035
23.5073,58172
23.5131,57530
23.5188,56984
23.5245,56802
23.5302,57332
23.5359,55780
23.5417,57316
23.5474,56385
23.5531,58236
23.5588,59076
23.5645,56451
23.5703,59029
23.576,56053
23.5817,57168
23.5874,57293
23.5932,58307
23.5989,56387
23.6046,58196
23.6103,57382
23.616,58308
23.6218,57599
23.6275,59934
23.6332,60305
23.6389,59641
23.6447,58347
23.6504,58773
23.6561,56700
23.6618,59318
23.6675,59019
23.6732,58326
23.679,61879
23.6847,59419
23.6904,59176
23.6961,57031
23.7019,60913
23.7076,58946
23.7133,59083
23.719,56824
23.7248,59503
23.7305,60898
23.7362,58597
23.7419,59876
23.7477,59773
23.7534,59592
23.7591,60986
23.7648,60438
23.7705,62044
23.7763,60189
23.782,60360
23.7877,56896
23.7934,63534
23.7991,60461
23.8049,61626
23.8106,60524
23.8163,58351
23.822,56845
23.8278,58728
23.8335,60885
23.8392,60466
23.8449,60846
23.8506,60654
23.8564,60403
23.8621,58544
23.8678,58794
23.8735,60473
23.8793,56228
23.885,60091
23.8907,59332
23.8964,60815
23.9021,61127
23.9079,62415
23.9136,59507
23.9193,60061
23.925,60557
23.9308,60825
23.9365,59353
23.9422,60561
23.9479,59579
23.9536,59042
23.9594,60548
23.9651,57774
23.9708,59516
23.9765,60481
23.9823,60699
23.988,59669
23.9937,58557
23.9994,60156
24.0051,60284
24.0109,60649
24.0166,59540
24.0223,59244
24.028,60799
24.0338,57436
24.0395,60604
24.0452,61023
24.0509,59409
24.0566,61059
24.0624,60202
24.0681,60759
24.0738,60081
24.0795,62701
24.0852,58968
24.091,59759
24.0967,58457
24.1024,58786
24.1081,57315
24.1139,61638
24.1196,60818
24.1253,57459
24.131,60454
24.1367,59498
24.1425,60733
24.1482,59666
24.1539,61573
24.1596,61819
24.1654,58475
24.1711,63396
24.1768,60334
24.1825,58125
24.1882,60822
24.194,61668
24.1997,60656
24.2054,62545
24.2111,59209
24.2169,60480
24.2226,60674
24.2283,60210
24.234,60431
24.2397,59864
24.2455,58882
24.2512,60140
24.2569,60658
24.2626,59203
24.2684,60956
24.2741,60996
24.2798,59541
24.2855,60094
24.2912,60493
24.297,58097
24.3027,59944
24.3084,62183
24.3141,59570
24.3198,61248
24.3256,59276
24.3313,60582
24.337,59912
24.3427,59450
24.3485,61276
24.3542,59475
24.3599,59071
24.3656,57687
24.3713,61018
24.3771,58816
24.3828,59789
24.3885,61600
24.3942,58159
24.4,57385
24.4057,58276
24.4114,60767
24.4171,62647
24.4228,58663
24.4286,61050
24.4343,60554
24.44,58359
24.4457,58843
24.4515,60929
24.4572,57131
24.4629,58307
24.4686,58938
24.4743,58060
24.4801,59647
24.4858,61328
24.4915,59743
24.4972,60458
24.503,59835
24.5087,59641
24.5144,61251
24.5201,59393
24.5258,60264
24.5316,58521
24.5373,59689
24.543,57658
24.5487,63751
24.5545,61362
24.5602,60440
24.5659,61143
24.5716,61605
24.5773,59440
24.5831,58402
24.5888,59658
24.5945,59883
24.6002,59044
24.6059,61376
24.6117,60838
24.6174,61448
24.6231,58912
24.6288,61711
24.6346,60049
24.6403,58481
24.646,59681
24.6517,61494
24.6574,60770
24.6632,60640
24.6689,61834
24.6746,59488
24.6803,62571
24.6861,60890
24.6918,59668
24.6975,58546
24.7032,59563
24.7089,59715
24.7147,60899
24.7204,61489
24.7261,57419
24.7318,59480
24.7376,59834
24.7433,60557
24.749,61499
24.7547,59531
24.7604,59739
24.7662,58921
24.7719,60078
24.7776,59966
24.7833,60887
24.7891,59380
24.7948,59179
24.8005,61002
24.8062,58733
24.8119,61692
24.8177,62439
24.8234,60280
24.8291,61078
24.8348,60273
24.8405,63642
24.8463,59483
24.852,58277
24.8577,58635
24.8634,58700
24.8692,59757
24.8749,61275
24.8806,59761
24.8863,58757
24.892,61138
24.8978,60917
24.9035,60730
24.9092,60777
24.9149,59722
24.9207,59797
24.9264,58903
24.9321,59602
24.9378,61269
24.9435,57145
24.9493,59728
24.955,60221
24.9607,62505
24.9664,59866
24.9722,61348
24.9779,62379
24.9836,60969
24.9893,61982
24.995,63776
