C:\MSDCHEM\1\DATA\SERINA\20180424_NLTAB_FRESH\SLR2_12_OleA_2.d 24 Apr 18   1:53 pm
Start of data points
4.09263,1071
4.09837,1283
4.10408,1247
4.1098,1142
4.11553,1153
4.12125,883
4.12697,1029
4.1327,1283
4.13842,1193
4.14413,1231
4.14987,1516
4.15558,824
4.1613,1262
4.16703,850
4.17275,942
4.17847,1132
4.1842,1319
4.18992,997
4.19563,1293
4.20135,1132
4.20708,1210
4.2128,1041
4.21852,1144
4.22425,759
4.22997,749
4.23568,1044
4.24142,1221
4.24713,1195
4.25285,1240
4.25858,832
4.2643,1316
4.27002,1045
4.27575,806
4.28147,1117
4.28718,864
4.29292,616
4.29863,686
4.30435,1125
4.31008,932
4.3158,569
4.32152,833
4.32723,1004
4.33297,1010
4.33868,489
4.3444,1291
4.35013,817
4.35585,372
4.36157,910
4.3673,700
4.37302,1073
4.37873,810
4.38447,716
4.39018,572
4.3959,1140
4.40163,600
4.40735,946
4.41307,551
4.4188,690
4.42452,809
4.43023,756
4.43597,1212
4.44168,811
4.4474,703
4.45313,1032
4.45885,791
4.46457,1029
4.47028,881
4.47602,949
4.48173,1232
4.48745,1167
4.49318,1034
4.4989,944
4.50462,894
4.51035,1118
4.51607,843
4.52178,1265
4.52752,1040
4.53323,972
4.53895,997
4.54468,1141
4.5504,1078
4.55612,1137
4.56185,1184
4.56757,1250
4.57328,852
4.57902,777
4.58473,1020
4.59045,1211
4.59617,1236
4.6019,878
4.60762,848
4.61333,1315
4.61907,886
4.62478,1424
4.6305,812
4.63623,918
4.64195,1078
4.64767,806
4.6534,1182
4.65912,1298
4.66483,966
4.67057,829
4.67628,1036
4.682,1336
4.68773,876
4.69345,792
4.69917,1208
4.7049,865
4.71062,1385
4.71633,980
4.72205,1006
4.72778,632
4.7335,720
4.73922,612
4.74495,1127
4.75067,1164
4.75638,786
4.76212,1354
4.76783,1083
4.77355,1369
4.77928,1293
4.785,872
4.79072,892
4.79645,1325
4.80217,1329
4.80788,738
4.81362,776
4.81933,837
4.82505,789
4.83078,939
4.8365,1320
4.84222,1215
4.84793,827
4.85367,1005
4.85938,609
4.8651,720
4.87083,790
4.87655,658
4.88227,1229
4.888,895
4.89372,638
4.89943,1165
4.90517,1201
4.91088,1277
4.9166,969
4.92233,662
4.92805,1076
4.93377,613
4.9395,826
4.94522,582
4.95093,670
4.95667,792
4.96238,524
4.9681,889
4.97382,860
4.97955,660
4.98527,784
4.99098,1018
4.99672,436
5.00243,572
5.00815,588
5.01388,647
5.0196,765
5.02532,933
5.03105,528
5.03677,810
5.04248,856
5.04822,807
5.05393,408
5.05965,843
5.06538,684
5.0711,489
5.07682,670
5.08255,470
5.08827,619
5.09398,656
5.0997,1041
5.10543,364
5.11115,593
5.11687,575
5.1226,797
5.12832,482
5.13403,601
5.13977,819
5.14548,626
5.1512,612
5.15693,850
5.16265,609
5.16837,470
5.1741,732
5.17982,828
5.18553,404
5.19127,589
5.19698,874
5.2027,383
5.20843,794
5.21415,918
5.21987,941
5.22558,435
5.23132,507
5.23703,438
5.24275,817
5.24848,470
5.2542,303
5.25992,814
5.26565,719
5.27137,709
5.27708,793
5.28282,848
5.28853,943
5.29425,824
5.29998,1267
5.3057,1167
5.31142,1192
5.31715,1003
5.32287,1280
5.32858,901
5.33432,1424
5.34003,1388
5.34575,944
5.35147,829
5.3572,1062
5.36292,456
5.36863,1074
5.37437,848
5.38008,889
5.3858,1015
5.39153,718
5.39725,836
5.40297,1137
5.4087,1197
5.41442,995
5.42013,1015
5.42587,786
5.43158,828
5.4373,981
5.44303,716
5.44875,634
5.45447,534
5.4602,684
5.46592,619
5.47163,547
5.47735,764
5.48308,648
5.4888,578
5.49452,851
5.50025,703
5.50597,363
5.51168,614
5.51742,512
5.52313,486
5.52885,374
5.53458,777
5.5403,1075
5.54602,506
5.55175,332
5.55747,421
5.56318,356
5.56892,883
5.57463,469
5.58035,440
5.58608,646
5.5918,672
5.59752,811
5.60323,711
5.60897,822
5.61468,511
5.6204,848
5.62613,645
5.63185,1003
5.63757,597
5.6433,531
5.64902,616
5.65473,299
5.66047,762
5.66618,699
5.6719,936
5.67763,335
5.68335,825
5.68907,756
5.6948,393
5.70052,655
5.70623,567
5.71197,376
5.71768,598
5.7234,541
5.72912,829
5.73485,589
5.74057,630
5.74628,607
5.75202,646
5.75773,579
5.76345,508
5.76918,467
5.7749,651
5.78062,603
5.78635,540
5.79207,573
5.79778,437
5.80352,438
5.80923,654
5.81495,386
5.82068,832
5.8264,613
5.83212,748
5.83785,389
5.84357,608
5.84928,694
5.855,563
5.86073,308
5.86645,287
5.87217,475
5.8779,600
5.88362,482
5.88933,660
5.89507,891
5.90078,980
5.9065,562
5.91223,846
5.91795,1015
5.92367,1330
5.9294,1004
5.93512,1296
5.94083,981
5.94657,705
5.95228,895
5.958,691
5.96373,677
5.96945,1089
5.97517,873
5.98088,491
5.98662,788
5.99233,984
5.99805,670
6.00378,893
6.0095,798
6.01522,468
6.02095,1210
6.02667,385
6.03238,745
6.03812,353
6.04383,469
6.04955,663
6.05528,730
6.061,266
6.06672,581
6.07245,887
6.07817,515
6.08388,968
6.08962,1088
6.09533,875
6.10105,911
6.10677,945
6.1125,384
6.11822,452
6.12393,293
6.12967,531
6.13538,601
6.1411,537
6.14683,508
6.15255,685
6.15827,423
6.164,454
6.16972,319
6.17543,294
6.18117,455
6.18688,388
6.1926,591
6.19833,592
6.20405,757
6.20977,437
6.2155,621
6.22122,470
6.22693,398
6.23265,405
6.23838,279
6.2441,546
6.24982,612
6.25555,333
6.26127,232
6.26698,416
6.27272,523
6.27843,426
6.28415,298
6.28988,558
6.2956,431
6.30132,615
6.30705,375
6.31277,429
6.31848,341
6.32422,346
6.32993,322
6.33565,274
6.34138,494
6.3471,489
6.35282,553
6.35853,479
6.36427,704
6.36998,753
6.3757,484
6.38143,503
6.38715,512
6.39287,508
6.3986,588
6.40432,494
6.41003,750
6.41577,684
6.42148,560
6.4272,503
6.43293,433
6.43865,505
6.44437,517
6.4501,421
6.45582,531
6.46153,544
6.46727,434
6.47298,306
6.4787,412
6.48442,708
6.49015,197
6.49587,362
6.50158,519
6.50732,628
6.51303,622
6.51875,312
6.52448,637
6.5302,505
6.53592,478
6.54165,549
6.54737,330
6.55308,536
6.55882,489
6.56453,501
6.57025,544
6.57598,420
6.5817,552
6.58742,626
6.59315,316
6.59887,496
6.60458,712
6.6103,882
6.61603,598
6.62175,254
6.62747,467
6.6332,470
6.63892,393
6.64463,243
6.65037,530
6.65608,687
6.6618,760
6.66753,469
6.67325,332
6.67897,338
6.6847,396
6.69042,394
6.69613,468
6.70187,399
6.70758,509
6.7133,297
6.71903,547
6.72475,419
6.73047,321
6.73618,870
6.74192,617
6.74763,1079
6.75335,1148
6.75908,1627
6.7648,2206
6.77052,2557
6.77625,2697
6.78197,1797
6.78768,2003
6.79342,1405
6.79913,1217
6.80485,887
6.81058,829
6.8163,783
6.82202,816
6.82775,952
6.83347,747
6.83918,992
6.84492,593
6.85063,792
6.85635,555
6.86207,762
6.8678,314
6.87352,479
6.87923,253
6.88497,577
6.89068,592
6.8964,868
6.90213,277
6.90785,508
6.91357,608
6.9193,357
6.92502,671
6.93073,593
6.93647,601
6.94218,371
6.9479,280
6.95363,298
6.95935,306
6.96507,332
6.9708,549
6.97652,532
6.98223,338
6.98795,550
6.99368,362
6.9994,348
7.00512,532
7.01085,489
7.01657,588
7.02228,361
7.02802,596
7.03373,437
7.03945,357
7.04518,551
7.0509,301
7.05662,354
7.06235,370
7.06807,213
7.07378,434
7.07952,544
7.08523,325
7.09095,433
7.09668,296
7.1024,406
7.10812,494
7.11383,316
7.11957,283
7.12528,271
7.131,343
7.13673,257
7.14245,389
7.14817,710
7.1539,253
7.15962,473
7.16533,262
7.17107,248
7.17678,281
7.1825,312
7.18823,771
7.19395,622
7.19967,481
7.2054,278
7.21112,392
7.21683,655
7.22257,301
7.22828,564
7.234,444
7.23972,439
7.24545,509
7.25117,411
7.25688,333
7.26262,652
7.26833,441
7.27405,448
7.27978,226
7.2855,276
7.29122,453
7.29695,324
7.30267,648
7.30838,633
7.31412,285
7.31983,627
7.32555,334
7.33128,189
7.337,497
7.34272,530
7.34845,390
7.35417,385
7.35988,460
7.3656,407
7.37133,523
7.37705,274
7.38277,313
7.3885,374
7.39422,213
7.39993,279
7.40567,412
7.41138,307
7.4171,268
7.42283,242
7.42855,308
7.43427,288
7.44,309
7.44572,340
7.45143,272
7.45717,216
7.46288,209
7.4686,468
7.47433,225
7.48005,545
7.48577,335
7.49148,463
7.49722,560
7.50293,452
7.50865,287
7.51438,363
7.5201,245
7.52582,304
7.53155,316
7.53727,185
7.54298,411
7.54872,469
7.55443,396
7.56015,536
7.56588,431
7.5716,275
7.57732,350
7.58305,307
7.58877,657
7.59448,649
7.60022,234
7.60593,453
7.61165,216
7.61737,0
7.6231,285
7.62882,569
7.63453,283
7.64027,595
7.64598,246
7.6517,584
7.65743,335
7.66315,723
7.66887,533
7.6746,355
7.68032,317
7.68603,345
7.69177,549
7.69748,740
7.7032,298
7.70893,498
7.71465,311
7.72037,308
7.7261,359
7.73182,297
7.73753,353
7.74325,577
7.74898,300
7.7547,473
7.76042,312
7.76615,238
7.77187,399
7.77758,230
7.78332,290
7.78903,326
7.79475,187
7.80048,180
7.8062,363
7.81192,514
7.81765,629
7.82337,588
7.82908,668
7.83482,563
7.84053,205
7.84625,385
7.85198,186
7.8577,476
7.86342,361
7.86913,424
7.87487,296
7.88058,391
7.8863,413
7.89203,370
7.89775,484
7.90347,341
7.9092,295
7.91492,492
7.92063,347
7.92637,598
7.93208,420
7.9378,567
7.94353,506
7.94925,288
7.95497,266
7.9607,233
7.96642,431
7.97213,240
7.97787,373
7.98358,291
7.9893,575
7.99503,301
8.00075,226
8.00647,382
8.01218,484
8.01792,463
8.02363,558
8.02935,223
8.03508,266
8.0408,252
8.04652,334
8.05225,211
8.05797,178
8.06368,322
8.06942,187
8.07513,458
8.08085,523
8.08658,495
8.0923,726
8.09802,256
8.10375,444
8.10947,553
8.11518,229
8.12092,359
8.12663,271
8.13235,427
8.13807,413
8.1438,245
8.14952,648
8.15523,326
8.16097,218
8.16668,298
8.1724,163
8.17813,232
8.18385,524
8.18957,455
8.1953,305
8.20102,324
8.20673,347
8.21247,210
8.21818,440
8.2239,524
8.22963,275
8.23535,246
8.24107,304
8.2468,471
8.25252,299
8.25823,536
8.26395,621
8.26968,487
8.2754,185
8.28112,429
8.28685,241
8.29257,237
8.29828,493
8.30402,282
8.30973,313
8.31545,325
8.32118,175
8.3269,204
8.33262,426
8.33835,630
8.34407,182
8.34978,580
8.35552,466
8.36123,1121
8.36695,1719
8.37268,1195
8.3784,1144
8.38412,880
8.38983,920
8.39557,459
8.40128,227
8.407,543
8.41273,237
8.41845,257
8.42417,302
8.4299,606
8.43562,552
8.44133,269
8.44707,319
8.45278,221
8.4585,366
8.46423,562
8.46995,378
8.47567,545
8.4814,486
8.48712,252
8.49283,0
8.49857,379
8.50428,463
8.51,250
8.51572,392
8.52145,547
8.52717,157
8.53288,527
8.53862,469
8.54433,509
8.55005,639
8.55578,378
8.5615,338
8.56722,582
8.57295,301
8.57867,459
8.58438,295
8.59012,494
8.59583,446
8.60155,312
8.60728,379
8.613,316
8.61872,227
8.62445,174
8.63017,0
8.63588,281
8.6416,257
8.64733,564
8.65305,470
8.65877,360
8.6645,761
8.67022,610
8.67593,467
8.68167,251
8.68738,314
8.6931,443
8.69883,491
8.70455,359
8.71027,273
8.716,174
8.72172,178
8.72743,536
8.73317,398
8.73888,402
8.7446,183
8.75033,207
8.75605,208
8.76177,156
8.76748,205
8.77322,314
8.77893,281
8.78465,460
8.79038,158
8.7961,157
8.80182,365
8.80755,382
8.81327,207
8.81898,291
8.82472,341
8.83043,197
8.83615,375
8.84188,209
8.8476,334
8.85332,579
8.85905,173
8.86477,224
8.87048,158
8.87622,558
8.88193,261
8.88765,193
8.89337,249
8.8991,483
8.90482,355
8.91053,435
8.91627,188
8.92198,916
8.9277,935
8.93343,792
8.93915,1342
8.94487,1170
8.9506,665
8.95632,354
8.96203,214
8.96777,203
8.97348,409
8.9792,339
8.98493,259
8.99065,314
8.99637,473
9.0021,444
9.00782,250
9.01353,680
9.01925,602
9.02498,530
9.0307,325
9.03642,163
9.04215,508
9.04787,355
9.05358,536
9.05932,2147
9.06503,5181
9.07075,10655
9.07648,17303
9.0822,22131
9.08792,19918
9.09365,14017
9.09937,8297
9.10508,4883
9.11082,3704
9.11653,1852
9.12225,1238
9.12798,630
9.1337,603
9.13942,488
9.14513,170
9.15087,243
9.15658,391
9.1623,479
9.16803,703
9.17375,204
9.17947,415
9.1852,433
9.19092,287
9.19663,226
9.20237,353
9.20808,578
9.2138,476
9.21953,160
9.22525,281
9.23097,272
9.2367,277
9.24242,331
9.24813,514
9.25387,246
9.25958,249
9.2653,249
9.27102,0
9.27675,386
9.28247,208
9.28818,277
9.29392,257
9.29963,0
9.30535,310
9.31108,166
9.3168,0
9.32252,179
9.32825,152
9.33397,167
9.33968,282
9.34542,521
9.35113,498
9.35685,230
9.36258,262
9.3683,164
9.37402,223
9.37975,473
9.38547,277
9.39118,255
9.3969,243
9.40263,257
9.40835,507
9.41407,486
9.4198,226
9.42552,252
9.43123,159
9.43697,175
9.44268,0
9.4484,243
9.45413,425
9.45985,314
9.46557,196
9.4713,278
9.47702,328
9.48273,300
9.48847,186
9.49418,570
9.4999,386
9.50563,183
9.51135,343
9.51707,457
9.52278,292
9.52852,0
9.53423,469
9.53995,201
9.54568,356
9.5514,343
9.55712,0
9.56285,335
9.56857,357
9.57428,652
9.58002,0
9.58573,219
9.59145,428
9.59718,313
9.6029,0
9.60862,215
9.61435,0
9.62007,271
9.62578,227
9.63152,303
9.63723,162
9.64295,258
9.64867,392
9.6544,256
9.66012,199
9.66583,191
9.67157,158
9.67728,255
9.683,246
9.68873,483
9.69445,164
9.70017,234
9.7059,0
9.71162,380
9.71733,385
9.72307,152
9.72878,0
9.7345,447
9.74023,672
9.74595,221
9.75167,472
9.7574,275
9.76312,322
9.76883,351
9.77455,345
9.78028,331
9.786,300
9.79172,488
9.79745,195
9.80317,152
9.80888,0
9.81462,507
9.82033,150
9.82605,169
9.83178,213
9.8375,427
9.84322,513
9.84895,308
9.85467,302
9.86038,237
9.86612,668
9.87183,0
9.87755,187
9.88328,323
9.889,179
9.89472,0
9.90043,0
9.90617,221
9.91188,487
9.9176,414
9.92333,153
9.92905,248
9.93477,277
9.9405,396
9.94622,332
9.95193,217
9.95767,174
9.96338,360
9.9691,450
9.97483,0
9.98055,197
9.98627,288
9.992,171
9.99772,317
10.0034,263
10.0092,455
10.0149,0
10.0206,0
10.0263,215
10.0321,189
10.0378,184
10.0435,206
10.0492,213
10.0549,182
10.0607,179
10.0664,360
10.0721,0
10.0778,189
10.0836,393
10.0893,399
10.095,0
10.1007,232
10.1064,491
10.1122,235
10.1179,431
10.1236,193
10.1293,226
10.1351,0
10.1408,0
10.1465,205
10.1522,208
10.1579,360
10.1637,176
10.1694,189
10.1751,185
10.1808,178
10.1865,201
10.1923,278
10.198,265
10.2037,239
10.2094,453
10.2152,344
10.2209,0
10.2266,0
10.2323,356
10.238,181
10.2438,214
10.2495,431
10.2552,176
10.2609,334
10.2667,570
10.2724,1234
10.2781,1344
10.2838,699
10.2895,658
10.2953,364
10.301,491
10.3067,221
10.3124,155
10.3182,280
10.3239,503
10.3296,347
10.3353,238
10.341,443
10.3468,324
10.3525,397
10.3582,231
10.3639,270
10.3697,351
10.3754,422
10.3811,469
10.3868,427
10.3925,0
10.3983,310
10.404,152
10.4097,336
10.4154,193
10.4211,471
10.4269,267
10.4326,174
10.4383,262
10.444,326
10.4498,450
10.4555,169
10.4612,0
10.4669,0
10.4726,0
10.4784,403
10.4841,454
10.4898,245
10.4955,403
10.5013,193
10.507,152
10.5127,239
10.5184,368
10.5241,0
10.5299,366
10.5356,312
10.5413,172
10.547,193
10.5528,267
10.5585,240
10.5642,393
10.5699,1157
10.5756,1847
10.5814,1479
10.5871,1479
10.5928,970
10.5985,433
10.6043,566
10.61,333
10.6157,572
10.6214,435
10.6271,0
10.6329,166
10.6386,210
10.6443,406
10.65,441
10.6557,1066
10.6615,263
10.6672,192
10.6729,465
10.6786,171
10.6844,290
10.6901,245
10.6958,0
10.7015,256
10.7072,279
10.713,430
10.7187,328
10.7244,0
10.7301,161
10.7359,198
10.7416,175
10.7473,0
10.753,326
10.7587,199
10.7645,183
10.7702,192
10.7759,234
10.7816,216
10.7874,165
10.7931,311
10.7988,183
10.8045,190
10.8102,155
10.816,201
10.8217,155
10.8274,603
10.8331,518
10.8389,583
10.8446,1853
10.8503,3773
10.856,5987
10.8617,7520
10.8675,6181
10.8732,5514
10.8789,3305
10.8846,2261
10.8904,1887
10.8961,1491
10.9018,903
10.9075,794
10.9132,686
10.919,760
10.9247,424
10.9304,561
10.9361,399
10.9418,182
10.9476,328
10.9533,695
10.959,1027
10.9647,975
10.9705,1432
10.9762,1154
10.9819,965
10.9876,758
10.9933,212
10.9991,438
11.0048,394
11.0105,226
11.0162,333
11.022,225
11.0277,172
11.0334,221
11.0391,596
11.0448,0
11.0506,311
11.0563,160
11.062,0
11.0677,262
11.0735,155
11.0792,388
11.0849,151
11.0906,151
11.0963,204
11.1021,504
11.1078,401
11.1135,644
11.1192,2453
11.125,7678
11.1307,20029
11.1364,31406
11.1421,41249
11.1478,37795
11.1536,24228
11.1593,11210
11.165,4284
11.1707,890
11.1764,612
11.1822,494
11.1879,695
11.1936,226
11.1993,201
11.2051,189
11.2108,538
11.2165,335
11.2222,450
11.2279,0
11.2337,0
11.2394,284
11.2451,330
11.2508,157
11.2566,259
11.2623,0
11.268,168
11.2737,0
11.2794,285
11.2852,262
11.2909,194
11.2966,229
11.3023,168
11.3081,481
11.3138,429
11.3195,392
11.3252,225
11.3309,174
11.3367,175
11.3424,0
11.3481,178
11.3538,178
11.3596,203
11.3653,165
11.371,521
11.3767,160
11.3824,226
11.3882,185
11.3939,0
11.3996,197
11.4053,162
11.411,194
11.4168,315
11.4225,563
11.4282,529
11.4339,627
11.4397,571
11.4454,1191
11.4511,1229
11.4568,1356
11.4625,1383
11.4683,402
11.474,772
11.4797,174
11.4854,302
11.4912,489
11.4969,536
11.5026,300
11.5083,317
11.514,644
11.5198,572
11.5255,0
11.5312,497
11.5369,177
11.5427,275
11.5484,796
11.5541,483
11.5598,774
11.5655,150
11.5713,160
11.577,447
11.5827,154
11.5884,468
11.5942,235
11.5999,0
11.6056,198
11.6113,0
11.617,156
11.6228,0
11.6285,0
11.6342,320
11.6399,575
11.6457,0
11.6514,365
11.6571,304
11.6628,0
11.6685,394
11.6743,319
11.68,185
11.6857,0
11.6914,0
11.6971,0
11.7029,249
11.7086,0
11.7143,0
11.72,228
11.7258,267
11.7315,153
11.7372,277
11.7429,327
11.7486,178
11.7544,0
11.7601,291
11.7658,163
11.7715,157
11.7773,0
11.783,0
11.7887,0
11.7944,191
11.8001,233
11.8059,393
11.8116,0
11.8173,0
11.823,241
11.8288,227
11.8345,451
11.8402,150
11.8459,182
11.8516,225
11.8574,185
11.8631,197
11.8688,377
11.8745,0
11.8803,495
11.886,194
11.8917,219
11.8974,150
11.9031,204
11.9089,154
11.9146,398
11.9203,186
11.926,206
11.9317,190
11.9375,217
11.9432,0
11.9489,0
11.9546,520
11.9604,0
11.9661,392
11.9718,0
11.9775,186
11.9832,229
11.989,255
11.9947,0
12.0004,0
12.0061,179
12.0119,0
12.0176,196
12.0233,226
12.029,0
12.0347,428
12.0405,232
12.0462,226
12.0519,354
12.0576,207
12.0634,264
12.0691,0
12.0748,0
12.0805,0
12.0862,368
12.092,448
12.0977,169
12.1034,438
12.1091,0
12.1149,0
12.1206,277
12.1263,221
12.132,298
12.1377,0
12.1435,268
12.1492,201
12.1549,0
12.1606,222
12.1664,362
12.1721,219
12.1778,154
12.1835,0
12.1892,188
12.195,379
12.2007,219
12.2064,0
12.2121,389
12.2178,195
12.2236,224
12.2293,160
12.235,526
12.2407,166
12.2465,186
12.2522,164
12.2579,0
12.2636,238
12.2693,240
12.2751,159
12.2808,176
12.2865,195
12.2922,430
12.298,458
12.3037,191
12.3094,193
12.3151,0
12.3208,0
12.3266,0
12.3323,398
12.338,405
12.3437,0
12.3495,165
12.3552,0
12.3609,181
12.3666,160
12.3723,370
12.3781,0
12.3838,184
12.3895,0
12.3952,181
12.401,0
12.4067,170
12.4124,167
12.4181,152
12.4238,203
12.4296,209
12.4353,0
12.441,177
12.4467,218
12.4524,150
12.4582,0
12.4639,0
12.4696,0
12.4753,161
12.4811,364
12.4868,242
12.4925,404
12.4982,162
12.5039,249
12.5097,150
12.5154,0
12.5211,0
12.5268,213
12.5326,457
12.5383,0
12.544,388
12.5497,414
12.5554,191
12.5612,0
12.5669,0
12.5726,214
12.5783,0
12.5841,0
12.5898,0
12.5955,161
12.6012,205
12.6069,165
12.6127,615
12.6184,162
12.6241,171
12.6298,187
12.6356,161
12.6413,175
12.647,0
12.6527,288
12.6584,0
12.6642,481
12.6699,707
12.6756,316
12.6813,224
12.687,0
12.6928,190
12.6985,171
12.7042,431
12.7099,425
12.7157,694
12.7214,694
12.7271,709
12.7328,0
12.7385,0
12.7443,190
12.75,170
12.7557,0
12.7614,193
12.7672,0
12.7729,352
12.7786,0
12.7843,164
12.79,227
12.7958,203
12.8015,187
12.8072,0
12.8129,165
12.8187,170
12.8244,180
12.8301,158
12.8358,333
12.8415,172
12.8473,443
12.853,0
12.8587,0
12.8644,182
12.8702,217
12.8759,249
12.8816,227
12.8873,242
12.893,195
12.8988,158
12.9045,247
12.9102,0
12.9159,182
12.9217,441
12.9274,461
12.9331,638
12.9388,2313
12.9445,7633
12.9503,15675
12.956,26641
12.9617,27925
12.9674,21559
12.9731,11186
12.9789,5439
12.9846,2007
12.9903,638
12.996,481
13.0018,166
13.0075,373
13.0132,182
13.0189,215
13.0246,235
13.0304,176
13.0361,0
13.0418,235
13.0475,0
13.0533,413
13.059,419
13.0647,196
13.0704,411
13.0761,295
13.0819,207
13.0876,322
13.0933,152
13.099,157
13.1048,269
13.1105,764
13.1162,873
13.1219,1722
13.1276,1047
13.1334,597
13.1391,497
13.1448,691
13.1505,201
13.1563,419
13.162,337
13.1677,439
13.1734,466
13.1791,561
13.1849,272
13.1906,0
13.1963,681
13.202,660
13.2077,868
13.2135,824
13.2192,652
13.2249,959
13.2306,759
13.2364,1310
13.2421,983
13.2478,655
13.2535,656
13.2592,354
13.265,189
13.2707,164
13.2764,0
13.2821,409
13.2879,317
13.2936,200
13.2993,191
13.305,212
13.3107,169
13.3165,432
13.3222,351
13.3279,341
13.3336,189
13.3394,0
13.3451,234
13.3508,0
13.3565,402
13.3622,362
13.368,0
13.3737,371
13.3794,171
13.3851,0
13.3909,0
13.3966,518
13.4023,161
13.408,502
13.4137,252
13.4195,470
13.4252,232
13.4309,742
13.4366,305
13.4423,300
13.4481,167
13.4538,373
13.4595,392
13.4652,173
13.471,520
13.4767,243
13.4824,184
13.4881,191
13.4938,176
13.4996,223
13.5053,221
13.511,321
13.5167,166
13.5225,414
13.5282,258
13.5339,0
13.5396,229
13.5453,456
13.5511,192
13.5568,342
13.5625,620
13.5682,255
13.574,156
13.5797,248
13.5854,175
13.5911,183
13.5968,0
13.6026,492
13.6083,431
13.614,0
13.6197,235
13.6255,407
13.6312,166
13.6369,1077
13.6426,1384
13.6483,1111
13.6541,1260
13.6598,246
13.6655,660
13.6712,153
13.677,427
13.6827,219
13.6884,409
13.6941,319
13.6998,164
13.7056,328
13.7113,170
13.717,0
13.7227,465
13.7284,385
13.7342,172
13.7399,505
13.7456,803
13.7513,419
13.7571,0
13.7628,433
13.7685,344
13.7742,229
13.7799,334
13.7857,554
13.7914,367
13.7971,393
13.8028,248
13.8086,434
13.8143,226
13.82,363
13.8257,181
13.8314,365
13.8372,187
13.8429,434
13.8486,366
13.8543,157
13.8601,397
13.8658,0
13.8715,438
13.8772,230
13.8829,0
13.8887,163
13.8944,347
13.9001,401
13.9058,436
13.9116,278
13.9173,560
13.923,0
13.9287,195
13.9344,282
13.9402,0
13.9459,150
13.9516,407
13.9573,527
13.963,219
13.9688,427
13.9745,383
13.9802,374
13.9859,0
13.9917,314
13.9974,0
14.0031,502
14.0088,158
14.0145,0
14.0203,0
14.026,189
14.0317,540
14.0374,0
14.0432,0
14.0489,280
14.0546,243
14.0603,196
14.066,159
14.0718,187
14.0775,0
14.0832,634
14.0889,177
14.0947,0
14.1004,0
14.1061,416
14.1118,415
14.1175,177
14.1233,324
14.129,150
14.1347,316
14.1404,192
14.1462,206
14.1519,0
14.1576,0
14.1633,0
14.169,154
14.1748,0
14.1805,0
14.1862,397
14.1919,155
14.1976,0
14.2034,376
14.2091,160
14.2148,0
14.2205,0
14.2263,202
14.232,372
14.2377,375
14.2434,375
14.2491,0
14.2549,192
14.2606,269
14.2663,221
14.272,210
14.2778,249
14.2835,214
14.2892,199
14.2949,0
14.3006,473
14.3064,508
14.3121,193
14.3178,215
14.3235,250
14.3293,429
14.335,475
14.3407,168
14.3464,209
14.3521,512
14.3579,0
14.3636,0
14.3693,499
14.375,189
14.3808,364
14.3865,380
14.3922,159
14.3979,258
14.4036,236
14.4094,173
14.4151,366
14.4208,182
14.4265,488
14.4323,179
14.438,0
14.4437,320
14.4494,337
14.4551,217
14.4609,155
14.4666,161
14.4723,189
14.478,155
14.4837,201
14.4895,391
14.4952,508
14.5009,1381
14.5066,3379
14.5124,8164
14.5181,13921
14.5238,14688
14.5295,12330
14.5352,7237
14.541,2940
14.5467,1374
14.5524,769
14.5581,462
14.5639,495
14.5696,626
14.5753,225
14.581,409
14.5867,642
14.5925,168
14.5982,414
14.6039,251
14.6096,0
14.6154,0
14.6211,311
14.6268,366
14.6325,0
14.6382,172
14.644,399
14.6497,0
14.6554,204
14.6611,200
14.6669,260
14.6726,0
14.6783,384
14.684,472
14.6897,370
14.6955,242
14.7012,474
14.7069,400
14.7126,222
14.7183,395
14.7241,178
14.7298,406
14.7355,158
14.7412,174
14.747,177
14.7527,219
14.7584,277
14.7641,314
14.7698,165
14.7756,326
14.7813,173
14.787,155
14.7927,449
14.7985,180
14.8042,439
14.8099,184
14.8156,396
14.8213,179
14.8271,408
14.8328,342
14.8385,257
14.8442,398
14.85,472
14.8557,0
14.8614,260
14.8671,359
14.8728,388
14.8786,206
14.8843,183
14.89,230
14.8957,328
14.9015,202
14.9072,194
14.9129,462
14.9186,500
14.9243,219
14.9301,193
14.9358,596
14.9415,171
14.9472,408
14.9529,180
14.9587,217
14.9644,480
14.9701,328
14.9758,212
14.9816,380
14.9873,471
14.993,459
14.9987,421
15.0044,508
15.0102,498
15.0159,244
15.0216,447
15.0273,175
15.0331,524
15.0388,355
15.0445,277
15.0502,0
15.0559,151
15.0617,407
15.0674,406
15.0731,464
15.0788,423
15.0846,321
15.0903,0
15.096,0
15.1017,375
15.1074,642
15.1132,486
15.1189,232
15.1246,417
15.1303,173
15.1361,0
15.1418,443
15.1475,184
15.1532,155
15.1589,366
15.1647,433
15.1704,396
15.1761,246
15.1818,0
15.1876,351
15.1933,404
15.199,422
15.2047,443
15.2104,461
15.2162,437
15.2219,380
15.2276,271
15.2333,157
15.239,0
15.2448,310
15.2505,454
15.2562,354
15.2619,200
15.2677,0
15.2734,571
15.2791,344
15.2848,257
15.2905,461
15.2963,183
15.302,322
15.3077,220
15.3134,153
15.3192,177
15.3249,608
15.3306,233
15.3363,471
15.342,477
15.3478,181
15.3535,256
15.3592,183
15.3649,275
15.3707,429
15.3764,454
15.3821,153
15.3878,373
15.3935,223
15.3993,255
15.405,305
15.4107,309
15.4164,298
15.4222,450
15.4279,595
15.4336,444
15.4393,431
15.445,493
15.4508,219
15.4565,388
15.4622,418
15.4679,0
15.4736,284
15.4794,153
15.4851,0
15.4908,184
15.4965,468
15.5023,511
15.508,166
15.5137,377
15.5194,386
15.5251,422
15.5309,393
15.5366,299
15.5423,269
15.548,196
15.5538,455
15.5595,382
15.5652,419
15.5709,224
15.5766,732
15.5824,347
15.5881,436
15.5938,638
15.5995,437
15.6053,0
15.611,595
15.6167,1047
15.6224,637
15.6281,521
15.6339,513
15.6396,397
15.6453,433
15.651,442
15.6568,867
15.6625,299
15.6682,375
15.6739,257
15.6796,923
15.6854,570
15.6911,363
15.6968,513
15.7025,357
15.7083,778
15.714,397
15.7197,296
15.7254,656
15.7311,221
15.7369,479
15.7426,318
15.7483,451
15.754,363
15.7597,709
15.7655,478
15.7712,651
15.7769,604
15.7826,535
15.7884,343
15.7941,254
15.7998,221
15.8055,540
15.8112,418
15.817,511
15.8227,739
15.8284,213
15.8341,419
15.8399,212
15.8456,407
15.8513,481
15.857,817
15.8627,432
15.8685,597
15.8742,544
15.8799,475
15.8856,452
15.8914,641
15.8971,449
15.9028,1158
15.9085,2030
15.9142,5225
15.92,7986
15.9257,9330
15.9314,6957
15.9371,5266
15.9429,2452
15.9486,1291
15.9543,668
15.96,541
15.9657,435
15.9715,564
15.9772,746
15.9829,575
15.9886,699
15.9943,490
16.0001,722
16.0058,530
16.0115,896
16.0172,604
16.023,690
16.0287,359
16.0344,521
16.0401,429
16.0458,246
16.0516,647
16.0573,314
16.063,415
16.0687,726
16.0744,602
16.0802,638
16.0859,744
16.0916,312
16.0973,490
16.1031,399
16.1088,365
16.1145,425
16.1202,180
16.126,600
16.1317,571
16.1374,780
16.1431,329
16.1488,274
16.1546,655
16.1603,228
16.166,289
16.1717,500
16.1775,585
16.1832,223
16.1889,1170
16.1946,691
16.2003,538
16.2061,370
16.2118,509
16.2175,602
16.2232,641
16.2289,328
16.2347,431
16.2404,515
16.2461,426
16.2518,481
16.2575,503
16.2633,401
16.269,454
16.2747,441
16.2804,475
16.2862,389
16.2919,916
16.2976,722
16.3033,585
16.309,753
16.3148,560
16.3205,375
16.3262,885
16.3319,814
16.3377,202
16.3434,536
16.3491,779
16.3548,369
16.3606,560
16.3663,279
16.372,449
16.3777,585
16.3834,445
16.3892,649
16.3949,680
16.4006,975
16.4063,402
16.4121,1214
16.4178,806
16.4235,567
16.4292,710
16.4349,535
16.4407,899
16.4464,779
16.4521,307
16.4578,568
16.4636,1037
16.4693,514
16.475,643
16.4807,559
16.4864,515
16.4921,579
16.4979,211
16.5036,591
16.5093,630
16.515,346
16.5208,524
16.5265,534
16.5322,566
16.5379,912
16.5437,315
16.5494,573
16.5551,368
16.5608,438
16.5665,760
16.5723,822
16.578,609
16.5837,341
16.5894,684
16.5952,607
16.6009,897
16.6066,498
16.6123,774
16.618,849
16.6238,203
16.6295,614
16.6352,542
16.6409,835
16.6467,526
16.6524,235
16.6581,628
16.6638,579
16.6695,331
16.6752,850
16.681,764
16.6867,778
16.6924,583
16.6981,637
16.7039,912
16.7096,801
16.7153,396
16.721,291
16.7267,662
16.7325,778
16.7382,521
16.7439,961
16.7496,608
16.7554,647
16.7611,875
16.7668,828
16.7725,782
16.7783,677
16.784,664
16.7897,794
16.7954,931
16.8011,251
16.8069,798
16.8126,967
16.8183,740
16.824,755
16.8298,787
16.8355,1156
16.8412,1062
16.8469,764
16.8526,794
16.8584,604
16.8641,675
16.8698,332
16.8755,752
16.8813,861
16.887,792
16.8927,384
16.8984,785
16.9041,524
16.9098,662
16.9156,623
16.9213,744
16.927,482
16.9327,670
16.9385,752
16.9442,1077
16.9499,538
16.9556,1172
16.9613,730
16.9671,1055
16.9728,880
16.9785,799
16.9842,970
16.99,1006
16.9957,816
17.0014,995
17.0071,813
17.0129,793
17.0186,728
17.0243,1213
17.03,1000
17.0357,835
17.0415,783
17.0472,853
17.0529,568
17.0586,466
17.0644,824
17.0701,828
17.0758,852
17.0815,663
17.0872,523
17.093,921
17.0987,972
17.1044,1169
17.1101,933
17.1158,1088
17.1216,941
17.1273,699
17.133,1052
17.1387,631
17.1444,745
17.1502,1025
17.1559,974
17.1616,1036
17.1673,948
17.1731,850
17.1788,993
17.1845,1142
17.1902,1667
17.196,3427
17.2017,4940
17.2074,6472
17.2131,5699
17.2189,3983
17.2246,3383
17.2303,1804
17.236,1508
17.2417,1376
17.2475,952
17.2532,1376
17.2589,1010
17.2646,877
17.2703,865
17.2761,936
17.2818,1143
17.2875,1144
17.2932,963
17.299,1393
17.3047,1188
17.3104,1051
17.3161,928
17.3218,1084
17.3276,1354
17.3333,1243
17.339,1045
17.3447,1348
17.3504,846
17.3562,1218
17.3619,833
17.3676,945
17.3733,1128
17.379,1215
17.3848,1312
17.3905,1438
17.3962,1028
17.4019,888
17.4077,929
17.4134,900
17.4191,1114
17.4248,750
17.4306,1136
17.4363,1221
17.442,1087
17.4477,1287
17.4535,657
17.4592,1617
17.4649,1233
17.4706,1410
17.4763,979
17.4821,1252
17.4878,1337
17.4935,637
17.4992,1258
17.5049,1837
17.5107,1139
17.5164,1086
17.5221,1054
17.5278,1215
17.5336,868
17.5393,880
17.545,1223
17.5507,1380
17.5564,1336
17.5622,989
17.5679,1209
17.5736,1084
17.5793,1285
17.5851,1073
17.5908,1315
17.5965,1461
17.6022,1119
17.6079,1675
17.6137,1092
17.6194,1224
17.6251,972
17.6308,873
17.6366,1136
17.6423,1329
17.648,1125
17.6537,1740
17.6594,1564
17.6652,1053
17.6709,1373
17.6766,1143
17.6823,1016
17.6881,1811
17.6938,1348
17.6995,974
17.7052,1490
17.7109,1110
17.7167,1329
17.7224,1473
17.7281,846
17.7338,1295
17.7395,1317
17.7453,1395
17.751,1376
17.7567,1481
17.7624,1249
17.7682,1215
17.7739,1354
17.7796,1503
17.7853,1353
17.791,1675
17.7968,1035
17.8025,1479
17.8082,1263
17.8139,1659
17.8196,1262
17.8254,1564
17.8311,1011
17.8368,1430
17.8425,1196
17.8483,1385
17.854,1703
17.8597,1377
17.8654,1300
17.8712,1255
17.8769,1716
17.8826,1548
17.8883,1598
17.894,1754
17.8998,1752
17.9055,1543
17.9112,3468
17.9169,3428
17.9227,3427
17.9284,3490
17.9341,1873
17.9398,1798
17.9455,1544
17.9513,1363
17.957,2190
17.9627,1533
17.9684,1897
17.9742,1900
17.9799,1676
17.9856,1615
17.9913,1489
17.997,1657
18.0028,1726
18.0085,1853
18.0142,1502
18.0199,1412
18.0256,1529
18.0314,1296
18.0371,1707
18.0428,1521
18.0485,2068
18.0543,2006
18.06,1638
18.0657,1431
18.0714,1393
18.0771,1711
18.0829,1712
18.0886,1712
18.0943,1907
18.1,1790
18.1058,1883
18.1115,2174
18.1172,1784
18.1229,1796
18.1286,2023
18.1344,1581
18.1401,2186
18.1458,2423
18.1515,1712
18.1573,1463
18.163,2137
18.1687,1016
18.1744,1465
18.1801,1758
18.1859,2153
18.1916,1667
18.1973,2105
18.203,1443
18.2088,1920
18.2145,1669
18.2202,1663
18.2259,1496
18.2316,2186
18.2373,2207
18.2431,1823
18.2488,1907
18.2545,1498
18.2602,1956
18.266,2072
18.2717,2211
18.2774,1772
18.2831,2053
18.2889,2482
18.2946,2150
18.3003,2114
18.306,1956
18.3117,2605
18.3175,1869
18.3232,2505
18.3289,1839
18.3346,1861
18.3404,2183
18.3461,2557
18.3518,2849
18.3575,4177
18.3632,6762
18.369,7721
18.3747,7055
18.3804,4778
18.3861,3800
18.3919,2695
18.3976,2810
18.4033,2685
18.409,2253
18.4147,2191
18.4205,2053
18.4262,2529
18.4319,2156
18.4376,2000
18.4434,1943
18.4491,2011
18.4548,2710
18.4605,2096
18.4662,2189
18.472,2005
18.4777,2449
18.4834,2091
18.4891,1940
18.4948,2747
18.5006,2848
18.5063,2349
18.512,2531
18.5177,2676
18.5235,2363
18.5292,2161
18.5349,2250
18.5406,2466
18.5463,2829
18.5521,3063
18.5578,2396
18.5635,2633
18.5692,2696
18.575,2474
18.5807,2916
18.5864,2975
18.5921,2183
18.5978,2286
18.6036,2470
18.6093,2076
18.615,2383
18.6207,2584
18.6265,2387
18.6322,2624
18.6379,2704
18.6436,2191
18.6493,2561
18.655,2618
18.6608,2395
18.6665,2298
18.6722,2389
18.6779,2414
18.6837,2878
18.6894,2929
18.6951,2762
18.7008,2419
18.7066,2675
18.7123,2679
18.718,2488
18.7237,2422
18.7295,3722
18.7352,10441
18.7409,17030
18.7466,27443
18.7523,31102
18.7581,26067
18.7638,16281
18.7695,10323
18.7752,6559
18.7809,5337
18.7867,3887
18.7924,4164
18.7981,3874
18.8038,4268
18.8096,3364
18.8153,3999
18.821,4293
18.8267,3965
18.8324,3016
18.8382,3549
18.8439,3318
18.8496,3047
18.8553,3831
18.8611,3233
18.8668,3116
18.8725,3412
18.8782,4002
18.8839,3218
18.8897,3365
18.8954,2867
18.9011,3534
18.9068,3496
18.9126,3854
18.9183,3352
18.924,2698
18.9297,3361
18.9354,3759
18.9412,3639
18.9469,3649
18.9526,4014
18.9583,3677
18.9641,3682
18.9698,3055
18.9755,2605
18.9812,3837
18.9869,4206
18.9927,3144
18.9984,3877
19.0041,3582
19.0098,3766
19.0155,3694
19.0213,3967
19.027,3504
19.0327,3745
19.0384,3968
19.0442,3838
19.0499,3970
19.0556,3586
19.0613,3669
19.067,4500
19.0728,3717
19.0785,3506
19.0842,3741
19.0899,3848
19.0957,3309
19.1014,4037
19.1071,3825
19.1128,4042
19.1185,3919
19.1243,3641
19.13,3787
19.1357,3765
19.1414,4569
19.1472,4443
19.1529,4142
19.1586,4117
19.1643,4104
19.17,3554
19.1758,4671
19.1815,4746
19.1872,3927
19.1929,4430
19.1987,3662
19.2044,3569
19.2101,4376
19.2158,4798
19.2215,3663
19.2273,3986
19.233,4071
19.2387,3673
19.2444,4558
19.2502,4187
19.2559,4061
19.2616,4156
19.2673,4844
19.273,3699
19.2788,3931
19.2845,4356
19.2902,4575
19.2959,3919
19.3016,4134
19.3074,4857
19.3131,4928
19.3188,4938
19.3245,3909
19.3302,4681
19.336,4145
19.3417,4675
19.3474,3958
19.3531,4791
19.3589,4302
19.3646,4347
19.3703,4657
19.376,4614
19.3818,4973
19.3875,5070
19.3932,5050
19.3989,4679
19.4046,4965
19.4104,4765
19.4161,4800
19.4218,4638
19.4275,5550
19.4333,7889
19.439,9814
19.4447,11329
19.4504,10693
19.4561,7194
19.4619,5888
19.4676,5863
19.4733,5219
19.479,5088
19.4848,5736
19.4905,4824
19.4962,5303
19.5019,5080
19.5076,5199
19.5134,5635
19.5191,5697
19.5248,5468
19.5305,5731
19.5362,5047
19.542,4424
19.5477,5432
19.5534,5265
19.5591,5105
19.5649,5390
19.5706,5968
19.5763,4699
19.582,5785
19.5877,5219
19.5935,5266
19.5992,5659
19.6049,4873
19.6106,5838
19.6164,5165
19.6221,5711
19.6278,5541
19.6335,5290
19.6392,5108
19.645,5974
19.6507,6369
19.6564,5269
19.6621,6137
19.6679,4816
19.6736,5597
19.6793,5542
19.685,5517
19.6907,6206
19.6965,6202
19.7022,5536
19.7079,5292
19.7136,6206
19.7194,6179
19.7251,6422
19.7308,5309
19.7365,6027
19.7422,5741
19.7479,6478
19.7537,6253
19.7594,7155
19.7651,6064
19.7708,5701
19.7766,6149
19.7823,6314
19.788,6020
19.7937,6232
19.7995,5733
19.8052,6023
19.8109,7573
19.8166,5065
19.8223,6382
19.8281,6436
19.8338,6795
19.8395,6238
19.8452,6177
19.851,6365
19.8567,6233
19.8624,5370
19.8681,7219
19.8738,5790
19.8796,6317
19.8853,6189
19.891,6518
19.8967,6302
19.9025,6581
19.9082,6705
19.9139,7052
19.9196,6459
19.9253,6015
19.9311,6141
19.9368,7089
19.9425,6518
19.9482,7321
19.954,6913
19.9597,6821
19.9654,6508
19.9711,6140
19.9768,7388
19.9826,6897
19.9883,6692
19.994,6599
19.9997,6943
20.0055,7058
20.0112,7308
20.0169,7812
20.0226,7513
20.0283,6705
20.0341,7062
20.0398,7821
20.0455,7191
20.0512,7431
20.0569,7389
20.0627,7566
20.0684,7411
20.0741,7131
20.0798,7985
20.0856,7646
20.0913,8788
20.097,7392
20.1027,8312
20.1084,6766
20.1142,8571
20.1199,7961
20.1256,8672
20.1313,7809
20.1371,8393
20.1428,8354
20.1485,8080
20.1542,7886
20.1599,7782
20.1656,7516
20.1714,7347
20.1771,7646
20.1828,8605
20.1885,8187
20.1943,7867
20.2,8575
20.2057,8347
20.2114,8236
20.2172,8508
20.2229,8388
20.2286,8420
20.2343,8956
20.2401,8407
20.2458,7066
20.2515,8298
20.2572,7341
20.2629,8315
20.2687,8569
20.2744,7925
20.2801,8751
20.2858,9128
20.2915,9184
20.2973,8196
20.303,9381
20.3087,8579
20.3144,9502
20.3202,8903
20.3259,9192
20.3316,9854
20.3373,10058
20.343,10195
20.3488,8855
20.3545,8215
20.3602,9320
20.3659,8611
20.3717,9608
20.3774,9752
20.3831,8346
20.3888,9955
20.3945,9232
20.4003,8999
20.406,9558
20.4117,8936
20.4174,9315
20.4232,9700
20.4289,10180
20.4346,10902
20.4403,13016
20.446,14416
20.4518,16019
20.4575,13780
20.4632,12764
20.4689,10839
20.4747,9459
20.4804,10186
20.4861,9487
20.4918,9688
20.4975,9535
20.5033,9913
20.509,9658
20.5147,11224
20.5204,10909
20.5261,10466
20.5319,10039
20.5376,11185
20.5433,10477
20.549,9984
20.5548,10822
20.5605,10319
20.5662,10878
20.5719,11107
20.5776,9967
20.5834,10438
20.5891,11603
20.5948,12478
20.6005,9631
20.6062,10891
20.612,12429
20.6177,10603
20.6234,10358
20.6291,11125
20.6349,11245
20.6406,10973
20.6463,11806
20.652,10448
20.6578,10546
20.6635,11830
20.6692,11490
20.6749,10897
20.6806,10539
20.6864,12096
20.6921,10182
20.6978,11287
20.7035,11850
20.7093,12303
20.715,11623
20.7207,11973
20.7264,12322
20.7321,11858
20.7379,12254
20.7436,12472
20.7493,12553
20.755,11396
20.7608,12109
20.7665,11899
20.7722,13236
20.7779,11183
20.7836,12636
20.7894,12773
20.7951,12500
20.8008,12203
20.8065,12878
20.8122,11798
20.818,12491
20.8237,12868
20.8294,12339
20.8351,12872
20.8409,12406
20.8466,13786
20.8523,13749
20.858,14669
20.8637,13357
20.8695,12754
20.8752,12145
20.8809,13179
20.8866,13500
20.8924,13191
20.8981,14283
20.9038,13080
20.9095,13195
20.9152,13059
20.921,13656
20.9267,13580
20.9324,13450
20.9381,14189
20.9439,13885
20.9496,14211
20.9553,14437
20.961,12274
20.9667,14817
20.9725,14716
20.9782,14835
20.9839,13194
20.9896,15055
20.9954,14673
21.0011,13559
21.0068,15112
21.0125,14089
21.0182,15386
21.0239,16476
21.0297,15419
21.0354,16332
21.0411,14382
21.0468,16946
21.0526,15523
21.0583,15462
21.064,16036
21.0697,16187
21.0755,15128
21.0812,15585
21.0869,15316
21.0926,15872
21.0983,15482
21.1041,14921
21.1098,15394
21.1155,15509
21.1212,15752
21.127,14794
21.1327,15963
21.1384,14771
21.1441,13948
21.1498,17212
21.1556,16309
21.1613,16395
21.167,16891
21.1727,17187
21.1785,15405
21.1842,16500
21.1899,17190
21.1956,16785
21.2013,15856
21.2071,17210
21.2128,16631
21.2185,16735
21.2242,17593
21.23,17453
21.2357,17104
21.2414,19019
21.2471,19015
21.2528,17034
21.2586,17659
21.2643,17107
21.27,17382
21.2757,19407
21.2814,18589
21.2872,17280
21.2929,17230
21.2986,17190
21.3043,19347
21.3101,18124
21.3158,17047
21.3215,19819
21.3272,18616
21.3329,19001
21.3387,18651
21.3444,18256
21.3501,18453
21.3558,19024
21.3616,18402
21.3673,18403
21.373,21626
21.3787,19838
21.3844,23051
21.3902,22886
21.3959,20945
21.4016,21841
21.4073,20222
21.4131,20058
21.4188,21079
21.4245,19265
21.4302,20525
21.4359,19028
21.4417,21431
21.4474,20635
21.4531,18198
21.4588,19571
21.4646,19882
21.4703,19895
21.476,19824
21.4817,21222
21.4874,21486
21.4932,19836
21.4989,20290
21.5046,20958
21.5103,20239
21.5161,21091
21.5218,22150
21.5275,21709
21.5332,20792
21.5389,22428
21.5447,19818
21.5504,21232
21.5561,21183
21.5618,20848
21.5675,22164
21.5733,21552
21.579,21016
21.5847,22340
21.5904,23723
21.5962,21901
21.6019,21833
21.6076,21203
21.6133,20997
21.619,23397
21.6248,21600
21.6305,21453
21.6362,22375
21.6419,23443
21.6477,20938
21.6534,22773
21.6591,22498
21.6648,21966
21.6705,21090
21.6763,21610
21.682,22065
21.6877,24172
21.6934,24934
21.6991,23846
21.7049,21667
21.7106,21840
21.7163,23335
21.722,22874
21.7278,23787
21.7335,25312
21.7392,25135
21.7449,25347
21.7507,24343
21.7564,23554
21.7621,25484
21.7678,24902
21.7735,23827
21.7793,22937
21.785,24493
21.7907,25303
21.7964,24387
21.8021,24132
21.8079,25418
21.8136,24701
21.8193,25251
21.825,24817
21.8308,24415
21.8365,26212
21.8422,25289
21.8479,25886
21.8536,27673
21.8594,27215
21.8651,26698
21.8708,24988
21.8765,25551
21.8823,25849
21.888,26981
21.8937,26418
21.8994,28019
21.9051,26369
21.9109,26815
21.9166,25494
21.9223,25579
21.928,26564
21.9338,27583
21.9395,27347
21.9452,28122
21.9509,26019
21.9566,28217
21.9624,27464
21.9681,26691
21.9738,26252
21.9795,28793
21.9853,27378
21.991,28490
21.9967,28818
22.0024,28412
22.0081,27912
22.0139,27144
22.0196,30060
22.0253,28804
22.031,28849
22.0367,32929
22.0425,46056
22.0482,67267
22.0539,93226
22.0596,112152
22.0654,106006
22.0711,82380
22.0768,56272
22.0825,43324
22.0882,38354
22.094,35166
22.0997,35456
22.1054,35456
22.1111,32282
22.1168,32286
22.1226,31577
22.1283,31102
22.134,32703
22.1397,30333
22.1455,29899
22.1512,31470
22.1569,32029
22.1626,32485
22.1684,33035
22.1741,32005
22.1798,33784
22.1855,31171
22.1912,33773
22.197,33320
22.2027,32638
22.2084,33175
22.2141,32387
22.2199,34635
22.2256,33027
22.2313,32409
22.237,33863
22.2427,33307
22.2485,34529
22.2542,33411
22.2599,33686
22.2656,34883
22.2714,36057
22.2771,35444
22.2828,35263
22.2885,33272
22.2942,32872
22.3,34291
22.3057,33726
22.3114,36362
22.3171,33237
22.3228,35094
22.3286,34644
22.3343,34433
22.34,33843
22.3457,35063
22.3515,34870
22.3572,36429
22.3629,35994
22.3686,35173
22.3743,36198
22.3801,34580
22.3858,35395
22.3915,35044
22.3972,33797
22.403,34175
22.4087,35173
22.4144,35215
22.4201,35387
22.4258,35836
22.4316,35165
22.4373,36113
22.443,37578
22.4487,35877
22.4545,34927
22.4602,37562
22.4659,37660
22.4716,36945
22.4773,38543
22.4831,37786
22.4888,38090
22.4945,38390
22.5002,38006
22.506,37467
22.5117,38364
22.5174,37951
22.5231,37689
22.5288,38019
22.5345,39067
22.5403,38280
22.546,36974
22.5517,38096
22.5574,40120
22.5632,38556
22.5689,38647
22.5746,39341
22.5803,41067
22.5861,38897
22.5918,39526
22.5975,38609
22.6032,38903
22.6089,38432
22.6147,39335
22.6204,39338
22.6261,39909
22.6318,38971
22.6376,39446
22.6433,40652
22.649,39966
22.6547,39524
22.6604,42226
22.6662,42062
22.6719,42602
22.6776,40347
22.6833,41798
22.6891,40946
22.6948,40765
22.7005,39251
22.7062,39999
22.7119,41358
22.7177,42915
22.7234,42043
22.7291,41739
22.7348,41308
22.7406,42660
22.7463,41008
22.752,40845
22.7577,41877
22.7634,41043
22.7692,41748
22.7749,43594
22.7806,42857
22.7863,43277
22.792,41211
22.7978,43036
22.8035,43724
22.8092,43652
22.8149,43720
22.8207,42871
22.8264,44268
22.8321,42955
22.8378,44424
22.8435,44996
22.8493,43923
22.855,43899
22.8607,44106
22.8664,45139
22.8722,44835
22.8779,44795
22.8836,43898
22.8893,44518
22.895,44461
22.9008,44423
22.9065,46089
22.9122,45466
22.9179,45630
22.9237,46315
22.9294,45414
22.9351,44479
22.9408,43947
22.9465,43495
22.9522,45075
22.958,44822
22.9637,45283
22.9694,46408
22.9752,45435
22.9809,47584
22.9866,46818
22.9923,45681
22.998,47332
23.0038,48039
23.0095,45882
23.0152,46177
23.0209,46726
23.0267,45714
23.0324,47392
23.0381,48294
23.0438,46339
23.0495,47034
23.0553,47871
23.061,45942
23.0667,48089
23.0724,48802
23.0781,48910
23.0839,43974
23.0896,48229
23.0953,50082
23.101,48198
23.1068,48060
23.1125,46549
23.1182,48701
23.1239,49038
23.1296,49103
23.1354,48292
23.1411,48931
23.1468,49206
23.1525,45817
23.1583,48174
23.164,49114
23.1697,49014
23.1754,50835
23.1811,49855
23.1869,51626
23.1926,50103
23.1983,50484
23.204,50025
23.2098,50922
23.2155,48619
23.2212,48077
23.2269,49802
23.2326,51732
23.2384,50510
23.2441,47212
23.2498,50384
23.2555,50354
23.2613,51831
23.267,49230
23.2727,51670
23.2784,48820
23.2841,49523
23.2899,50017
23.2956,50934
23.3013,51644
23.307,49610
23.3127,49457
23.3185,50575
23.3242,50275
23.3299,51400
23.3356,51664
23.3414,50830
23.3471,49473
23.3528,51970
23.3585,52138
23.3642,53171
23.37,49526
23.3757,52991
23.3814,52267
23.3871,51655
23.3929,52475
23.3986,53686
23.4043,52493
23.41,51117
23.4157,52912
23.4215,53647
23.4272,53496
23.4329,56751
23.4386,53088
23.4444,53015
23.4501,53106
23.4558,52386
23.4615,53402
23.4672,52854
23.473,52914
23.4787,51385
23.4844,55319
23.4901,54816
23.4959,54324
23.5016,53783
23.5073,53049
23.513,53162
23.5187,53384
23.5245,52975
23.5302,53849
23.5359,53289
23.5416,53829
23.5474,56496
23.5531,54899
23.5588,54260
23.5645,55647
23.5702,52902
23.576,56290
23.5817,55574
23.5874,55171
23.5931,54558
23.5988,51761
23.6046,54002
23.6103,57066
23.616,55393
23.6217,53134
23.6275,56845
23.6332,54379
23.6389,55283
23.6446,51340
23.6503,53359
23.6561,54713
23.6618,55588
23.6675,56449
23.6732,54035
23.679,56653
23.6847,55323
23.6904,57638
23.6961,57163
23.7018,55699
23.7076,55686
23.7133,57625
23.719,55557
23.7247,57085
23.7305,56077
23.7362,53413
23.7419,54936
23.7476,57400
23.7533,56881
23.7591,56782
23.7648,54693
23.7705,55220
23.7762,57041
23.782,58476
23.7877,56196
23.7934,55332
23.7991,56782
23.8048,55267
23.8106,53843
23.8163,57782
23.822,57105
23.8277,57326
23.8334,57716
23.8392,54060
23.8449,56595
23.8506,55423
23.8563,56090
23.8621,53567
23.8678,58381
23.8735,55148
23.8792,56850
23.8849,56980
23.8907,58870
23.8964,56770
23.9021,57045
23.9078,57621
23.9136,57504
23.9193,56832
23.925,56135
23.9307,55673
23.9364,57771
23.9422,57297
23.9479,56722
23.9536,54769
23.9593,55072
23.9651,54649
23.9708,55493
23.9765,54752
23.9822,56024
23.9879,54728
23.9937,57533
23.9994,56101
24.0051,58063
24.0108,55847
24.0166,55466
24.0223,55878
24.028,57137
24.0337,55122
24.0394,56942
24.0452,57323
24.0509,57731
24.0566,56139
24.0623,56681
24.068,57853
24.0738,55906
24.0795,54315
24.0852,56363
24.0909,58706
24.0967,57923
24.1024,57418
24.1081,59358
24.1138,58761
24.1195,57025
24.1253,57544
24.131,55182
24.1367,56952
24.1424,57384
24.1482,56116
24.1539,55464
24.1596,55033
24.1653,57520
24.171,56818
24.1768,57727
24.1825,59181
24.1882,58821
24.1939,57618
24.1997,55240
24.2054,58621
24.2111,56488
24.2168,56126
24.2225,56046
24.2283,55978
24.234,55949
24.2397,55391
24.2454,55279
24.2512,57143
24.2569,56374
24.2626,56093
24.2683,57374
24.274,56402
24.2798,55279
24.2855,57025
24.2912,55076
24.2969,54929
24.3027,57561
24.3084,56034
24.3141,55810
24.3198,57721
24.3255,56739
24.3313,56348
24.337,58041
24.3427,56712
24.3484,56824
24.3541,54298
24.3599,57822
24.3656,56008
24.3713,56276
24.377,57764
24.3828,56148
24.3885,58181
24.3942,57542
24.3999,57718
24.4056,57316
24.4114,57020
24.4171,55732
24.4228,57418
24.4285,57783
24.4343,57636
24.44,56095
24.4457,58004
24.4514,54943
24.4571,57500
24.4629,55591
24.4686,55154
24.4743,55048
24.48,59630
24.4857,55046
24.4915,58458
24.4972,57999
24.5029,57192
24.5086,56272
24.5144,55681
24.5201,56118
24.5258,56790
24.5315,57669
24.5373,57705
24.543,55621
24.5487,54475
24.5544,58527
24.5601,57730
24.5659,59568
24.5716,56970
24.5773,56807
24.583,55124
24.5887,56207
24.5945,57689
24.6002,55870
24.6059,57898
24.6116,57447
24.6174,57073
24.6231,56269
24.6288,54572
24.6345,56980
24.6402,57106
24.646,58825
24.6517,55524
24.6574,54835
24.6631,58322
24.6689,55987
24.6746,59432
24.6803,57658
24.686,58247
24.6917,54432
24.6975,54919
24.7032,57223
24.7089,55678
24.7146,56431
24.7204,56208
24.7261,55950
24.7318,59438
24.7375,56971
24.7432,57150
24.749,55357
24.7547,55857
24.7604,54189
24.7661,60117
24.7719,55200
24.7776,55638
24.7833,55996
24.789,56197
24.7947,57632
24.8005,56416
24.8062,56061
24.8119,58559
24.8176,58602
24.8233,56286
24.8291,58936
24.8348,58775
24.8405,56855
24.8462,58443
24.852,56031
24.8577,55535
24.8634,56477
24.8691,56425
24.8748,56807
24.8806,57658
24.8863,57963
24.892,56988
24.8977,56300
24.9034,56988
24.9092,54777
24.9149,57016
24.9206,57880
24.9263,57238
24.9321,58294
24.9378,54544
24.9435,57909
24.9492,57265
24.955,57130
24.9607,57991
24.9664,55603
24.9721,55184
24.9778,58110
24.9836,56720
24.9893,58032
24.995,57527
