C:\MSDCHEM\1\DATA\SERINA\20180424_NLTAB_FRESH\SLR2_12_NltA_2.d 24 Apr 18   4:44 pm
Start of data points
4.09253,8508
4.09827,8812
4.10398,8552
4.1097,9766
4.11543,8575
4.12115,7983
4.12687,7808
4.1326,8037
4.13832,8187
4.14403,7105
4.14977,6045
4.15548,7676
4.1612,7318
4.16693,7596
4.17265,6816
4.17837,6662
4.1841,6616
4.18982,6863
4.19553,6614
4.20125,6403
4.20698,6188
4.2127,7034
4.21842,6168
4.22415,5419
4.22987,7077
4.23558,5697
4.24132,6252
4.24703,6018
4.25275,6182
4.25848,5636
4.2642,5341
4.26992,5662
4.27565,5938
4.28137,4669
4.28708,5757
4.29282,4797
4.29853,5185
4.30425,4769
4.30998,4449
4.3157,5066
4.32142,4234
4.32713,4895
4.33287,4078
4.33858,5050
4.3443,4236
4.35003,4501
4.35575,4250
4.36147,4180
4.3672,3480
4.37292,4255
4.37863,3614
4.38437,4156
4.39008,3270
4.3958,3600
4.40153,3613
4.40725,3954
4.41297,3714
4.4187,3457
4.42442,3061
4.43013,4788
4.43587,3561
4.44158,3931
4.4473,3982
4.45302,3382
4.45875,3260
4.46447,3782
4.47018,3450
4.47592,3566
4.48163,3189
4.48735,3445
4.49308,2764
4.4988,3496
4.50452,3387
4.51025,3116
4.51597,2693
4.52168,3137
4.52742,2949
4.53313,3000
4.53885,3322
4.54458,2896
4.5503,3726
4.55602,2721
4.56175,2589
4.56747,3378
4.57318,2923
4.5789,3162
4.58463,2756
4.59035,3039
4.59607,2410
4.6018,2800
4.60752,2719
4.61323,2602
4.61897,2454
4.62468,3408
4.6304,2249
4.63613,2910
4.64185,2708
4.64757,2856
4.6533,2259
4.65902,2445
4.66473,2289
4.67047,2674
4.67618,2646
4.6819,2597
4.68763,2189
4.69335,2949
4.69907,2444
4.70478,2147
4.71052,2490
4.71623,2364
4.72195,2200
4.72768,2422
4.7334,1871
4.73912,1770
4.74485,2196
4.75057,2423
4.75628,2380
4.76202,2312
4.76773,2817
4.77345,2511
4.77918,2388
4.7849,2321
4.79062,2122
4.79635,2500
4.80207,1962
4.80778,2145
4.81352,2599
4.81923,1962
4.82495,2199
4.83067,2159
4.8364,2155
4.84212,2293
4.84783,2041
4.85357,2364
4.85928,2266
4.865,1625
4.87073,1566
4.87645,1936
4.88217,1736
4.8879,1985
4.89362,1868
4.89933,2438
4.90507,2292
4.91078,1863
4.9165,1795
4.92223,1724
4.92795,2274
4.93367,1785
4.9394,1343
4.94512,2039
4.95083,1249
4.95655,1818
4.96228,2183
4.968,1929
4.97372,1338
4.97945,1494
4.98517,1369
4.99088,1775
4.99662,1896
5.00233,1782
5.00805,1685
5.01378,1496
5.0195,1895
5.02522,1582
5.03095,1623
5.03667,1535
5.04238,1580
5.04812,1345
5.05383,1495
5.05955,1770
5.06528,1759
5.071,2025
5.07672,1659
5.08243,1351
5.08817,1824
5.09388,1795
5.0996,1627
5.10533,1375
5.11105,1381
5.11677,1265
5.1225,1453
5.12822,1245
5.13393,1465
5.13967,1672
5.14538,1405
5.1511,1587
5.15683,1587
5.16255,1629
5.16827,1719
5.174,1583
5.17972,1464
5.18543,1221
5.19117,1045
5.19688,1230
5.2026,1249
5.20832,1145
5.21405,1321
5.21977,1486
5.22548,1661
5.23122,1326
5.23693,1255
5.24265,1457
5.24838,1112
5.2541,1448
5.25982,1754
5.26555,1283
5.27127,1087
5.27698,1544
5.28272,1254
5.28843,1414
5.29415,2052
5.29988,1334
5.3056,1451
5.31132,1436
5.31705,1923
5.32277,1398
5.32848,1497
5.3342,1893
5.33993,1637
5.34565,1658
5.35137,2017
5.3571,1559
5.36282,1473
5.36853,1465
5.37427,1964
5.37998,1238
5.3857,1453
5.39143,2037
5.39715,1329
5.40287,1482
5.4086,1565
5.41432,1728
5.42003,1237
5.42577,2077
5.43148,1439
5.4372,1450
5.44293,1279
5.44865,1322
5.45437,1607
5.46008,1122
5.46582,1147
5.47153,874
5.47725,999
5.48298,1119
5.4887,1386
5.49442,1244
5.50015,1741
5.50587,1042
5.51158,1525
5.51732,1023
5.52303,984
5.52875,1245
5.53448,1260
5.5402,1386
5.54592,1562
5.55165,837
5.55737,1086
5.56308,1269
5.56882,1470
5.57453,1005
5.58025,1410
5.58597,1157
5.5917,1484
5.59742,1227
5.60313,1096
5.60887,1359
5.61458,926
5.6203,965
5.62603,1394
5.63175,1368
5.63747,1267
5.6432,1047
5.64892,921
5.65463,986
5.66037,981
5.66608,1602
5.6718,950
5.67753,829
5.68325,1323
5.68897,787
5.6947,1545
5.70042,1181
5.70613,1321
5.71185,1159
5.71758,924
5.7233,1313
5.72902,1601
5.73475,1276
5.74047,851
5.74618,1395
5.75192,1091
5.75763,935
5.76335,928
5.76908,1302
5.7748,1349
5.78052,1476
5.78625,1408
5.79197,1437
5.79768,1161
5.80342,1135
5.80913,678
5.81485,1455
5.82058,961
5.8263,995
5.83202,941
5.83773,1242
5.84347,1017
5.84918,710
5.8549,845
5.86063,1161
5.86635,1221
5.87207,847
5.8778,1143
5.88352,958
5.88923,758
5.89497,750
5.90068,740
5.9064,1226
5.91213,1586
5.91785,1470
5.92357,1210
5.9293,1401
5.93502,1253
5.94073,1421
5.94647,977
5.95218,1546
5.9579,917
5.96362,881
5.96935,924
5.97507,1137
5.98078,1147
5.98652,1126
5.99223,1489
5.99795,1560
6.00368,1170
6.0094,1470
6.01512,1220
6.02085,1318
6.02657,1437
6.03228,1015
6.03802,668
6.04373,1059
6.04945,1035
6.05518,1153
6.0609,1012
6.06662,1530
6.07235,1084
6.07807,1185
6.08378,1053
6.0895,853
6.09523,1101
6.10095,657
6.10667,1113
6.1124,1341
6.11812,1039
6.12383,788
6.12957,910
6.13528,1346
6.141,759
6.14673,980
6.15245,774
6.15817,963
6.1639,678
6.16962,665
6.17533,880
6.18107,1107
6.18678,1001
6.1925,1189
6.19823,569
6.20395,848
6.20967,753
6.21538,1024
6.22112,1001
6.22683,890
6.23255,751
6.23828,807
6.244,1152
6.24972,1028
6.25545,940
6.26117,770
6.26688,917
6.27262,863
6.27833,1023
6.28405,820
6.28978,932
6.2955,654
6.30122,861
6.30695,939
6.31267,1020
6.31838,967
6.32412,934
6.32983,849
6.33555,657
6.34128,811
6.347,780
6.35272,717
6.35843,636
6.36417,813
6.36988,726
6.3756,635
6.38133,596
6.38705,1020
6.39277,597
6.3985,1152
6.40422,864
6.40993,748
6.41567,1003
6.42138,741
6.4271,829
6.43283,1143
6.43855,675
6.44427,681
6.45,738
6.45572,996
6.46143,895
6.46717,935
6.47288,783
6.4786,618
6.48432,886
6.49005,830
6.49577,750
6.50148,730
6.50722,716
6.51293,1005
6.51865,610
6.52438,705
6.5301,613
6.53582,756
6.54155,594
6.54727,800
6.55298,705
6.55872,1010
6.56443,708
6.57015,976
6.57588,860
6.5816,876
6.58732,765
6.59305,863
6.59877,1105
6.60448,1248
6.6102,645
6.61593,685
6.62165,956
6.62737,919
6.6331,1027
6.63882,668
6.64453,830
6.65027,723
6.65598,786
6.6617,757
6.66743,700
6.67315,676
6.67887,783
6.6846,478
6.69032,975
6.69603,671
6.70177,806
6.70748,684
6.7132,972
6.71893,642
6.72465,1089
6.73037,573
6.73608,774
6.74182,878
6.74753,1103
6.75325,1102
6.75898,3024
6.7647,2865
6.77042,2610
6.77615,2901
6.78187,2528
6.78758,2383
6.79332,1977
6.79903,1530
6.80475,1888
6.81048,884
6.8162,923
6.82192,1334
6.82765,916
6.83337,918
6.83908,1138
6.84482,1014
6.85053,601
6.85625,899
6.86197,908
6.8677,1070
6.87342,966
6.87913,725
6.88487,746
6.89058,862
6.8963,1091
6.90203,687
6.90775,739
6.91347,714
6.9192,1065
6.92492,729
6.93063,845
6.93637,780
6.94208,980
6.9478,554
6.95353,832
6.95925,880
6.96497,794
6.9707,570
6.97642,810
6.98213,580
6.98785,672
6.99358,787
6.9993,764
7.00502,622
7.01075,992
7.01647,518
7.02218,828
7.02792,666
7.03363,961
7.03935,935
7.04508,495
7.0508,849
7.05652,669
7.06225,609
7.06797,526
7.07368,698
7.07942,768
7.08513,786
7.09085,570
7.09658,696
7.1023,724
7.10802,638
7.11373,968
7.11947,810
7.12518,873
7.1309,549
7.13663,796
7.14235,938
7.14807,497
7.1538,757
7.15952,846
7.16523,701
7.17097,700
7.17668,553
7.1824,715
7.18813,836
7.19385,679
7.19957,556
7.2053,696
7.21102,524
7.21673,957
7.22247,801
7.22818,665
7.2339,593
7.23962,753
7.24535,684
7.25107,885
7.25678,870
7.26252,583
7.26823,530
7.27395,615
7.27968,513
7.2854,647
7.29112,636
7.29685,689
7.30257,554
7.30828,721
7.31402,477
7.31973,555
7.32545,476
7.33118,574
7.3369,676
7.34262,608
7.34835,800
7.35407,919
7.35978,850
7.3655,588
7.37123,493
7.37695,578
7.38267,695
7.3884,468
7.39412,573
7.39983,651
7.40557,744
7.41128,878
7.417,277
7.42273,716
7.42845,767
7.43417,702
7.4399,795
7.44562,555
7.45133,544
7.45707,722
7.46278,615
7.4685,602
7.47423,385
7.47995,757
7.48567,752
7.49138,588
7.49712,666
7.50283,779
7.50855,655
7.51428,673
7.52,403
7.52572,559
7.53145,664
7.53717,917
7.54288,650
7.54862,636
7.55433,822
7.56005,663
7.56578,389
7.5715,973
7.57722,759
7.58295,608
7.58867,503
7.59438,550
7.60012,644
7.60583,620
7.61155,637
7.61727,420
7.623,453
7.62872,516
7.63443,515
7.64017,528
7.64588,687
7.6516,869
7.65733,912
7.66305,584
7.66877,575
7.6745,670
7.68022,732
7.68593,545
7.69167,565
7.69738,547
7.7031,626
7.70883,507
7.71455,711
7.72027,728
7.726,438
7.73172,608
7.73743,575
7.74315,706
7.74888,531
7.7546,560
7.76032,456
7.76605,642
7.77177,687
7.77748,785
7.78322,486
7.78893,432
7.79465,595
7.80038,595
7.8061,542
7.81182,573
7.81755,720
7.82327,783
7.82898,582
7.83472,506
7.84043,366
7.84615,550
7.85188,753
7.8576,871
7.86332,276
7.86903,635
7.87477,683
7.88048,646
7.8862,479
7.89193,497
7.89765,652
7.90337,629
7.9091,518
7.91482,565
7.92053,581
7.92627,730
7.93198,541
7.9377,613
7.94343,237
7.94915,619
7.95487,629
7.9606,574
7.96632,517
7.97203,828
7.97777,360
7.98348,180
7.9892,495
7.99492,650
8.00065,766
8.00637,630
8.01208,484
8.01782,704
8.02353,467
8.02925,605
8.03498,346
8.0407,486
8.04642,250
8.05215,518
8.05787,733
8.06358,597
8.06932,423
8.07503,906
8.08075,546
8.08648,523
8.0922,738
8.09792,647
8.10365,758
8.10937,736
8.11508,730
8.1208,679
8.12653,684
8.13225,520
8.13797,386
8.1437,527
8.14942,555
8.15513,584
8.16087,810
8.16658,246
8.1723,522
8.17803,494
8.18375,711
8.18947,728
8.1952,280
8.20092,563
8.20663,530
8.21237,442
8.21808,412
8.2238,513
8.22953,693
8.23525,613
8.24097,496
8.24668,616
8.25242,515
8.25813,547
8.26385,583
8.26958,541
8.2753,472
8.28102,177
8.28675,351
8.29247,541
8.29818,510
8.30392,638
8.30963,664
8.31535,681
8.32108,906
8.3268,320
8.33252,424
8.33825,230
8.34397,747
8.34968,343
8.35542,284
8.36113,727
8.36685,906
8.37257,1382
8.3783,559
8.38402,686
8.38973,582
8.39547,949
8.40118,711
8.4069,818
8.41263,467
8.41835,397
8.42407,406
8.4298,424
8.43552,166
8.44123,404
8.44697,747
8.45268,495
8.4584,468
8.46413,446
8.46985,547
8.47557,271
8.4813,446
8.48702,528
8.49273,455
8.49845,406
8.50418,477
8.5099,717
8.51562,220
8.52135,427
8.52707,414
8.53278,304
8.53852,440
8.54423,727
8.54995,204
8.55568,483
8.5614,559
8.56712,386
8.57285,591
8.57857,468
8.58428,414
8.59002,446
8.59573,364
8.60145,509
8.60718,546
8.6129,387
8.61862,453
8.62433,178
8.63007,458
8.63578,233
8.6415,477
8.64723,201
8.65295,834
8.65867,165
8.6644,437
8.67012,606
8.67583,437
8.68157,653
8.68728,722
8.693,565
8.69873,636
8.70445,478
8.71017,377
8.7159,255
8.72162,462
8.72733,330
8.73307,514
8.73878,162
8.7445,474
8.75022,424
8.75595,295
8.76167,429
8.76738,410
8.77312,620
8.77883,514
8.78455,354
8.79028,155
8.796,374
8.80172,189
8.80745,416
8.81317,493
8.81888,506
8.82462,229
8.83033,431
8.83605,489
8.84178,473
8.8475,522
8.85322,466
8.85895,442
8.86467,487
8.87038,371
8.8761,576
8.88183,558
8.88755,371
8.89327,544
8.899,489
8.90472,222
8.91043,634
8.91617,625
8.92188,224
8.9276,861
8.93333,1098
8.93905,1099
8.94477,705
8.9505,278
8.95622,401
8.96193,823
8.96767,279
8.97338,761
8.9791,430
8.98483,511
8.99055,440
8.99627,223
9.00198,256
9.00772,603
9.01343,317
9.01915,441
9.02488,0
9.0306,292
9.03632,298
9.04205,663
9.04777,813
9.05348,880
9.05922,834
9.06493,3872
9.07065,9289
9.07638,15794
9.0821,19302
9.08782,17847
9.09355,14310
9.09927,8516
9.10498,5704
9.11072,2796
9.11643,1195
9.12215,1335
9.12787,631
9.1336,1134
9.13932,505
9.14503,325
9.15077,429
9.15648,524
9.1622,582
9.16793,388
9.17365,500
9.17937,739
9.1851,257
9.19082,761
9.19653,192
9.20227,529
9.20798,460
9.2137,464
9.21943,250
9.22515,434
9.23087,527
9.2366,540
9.24232,425
9.24803,403
9.25375,525
9.25948,482
9.2652,658
9.27092,401
9.27665,188
9.28237,660
9.28808,398
9.29382,207
9.29953,253
9.30525,447
9.31098,272
9.3167,615
9.32242,175
9.32815,383
9.33387,449
9.33958,524
9.34532,325
9.35103,529
9.35675,235
9.36248,439
9.3682,397
9.37392,432
9.37963,164
9.38537,395
9.39108,478
9.3968,506
9.40253,709
9.40825,565
9.41397,458
9.4197,464
9.42542,274
9.43113,155
9.43687,665
9.44258,176
9.4483,324
9.45403,617
9.45975,376
9.46547,364
9.4712,376
9.47692,352
9.48263,413
9.48837,662
9.49408,489
9.4998,577
9.50552,381
9.51125,465
9.51697,697
9.52268,712
9.52842,368
9.53413,492
9.53985,245
9.54558,527
9.5513,368
9.55702,436
9.56275,460
9.56847,491
9.57418,485
9.57992,258
9.58563,415
9.59135,176
9.59708,326
9.6028,181
9.60852,0
9.61425,208
9.61997,0
9.62568,0
9.6314,0
9.63713,428
9.64285,150
9.64857,250
9.6543,507
9.66002,217
9.66573,210
9.67147,350
9.67718,0
9.6829,412
9.68863,337
9.69435,559
9.70007,542
9.7058,161
9.71152,152
9.71723,228
9.72297,692
9.72868,635
9.7344,384
9.74013,574
9.74585,234
9.75157,506
9.75728,343
9.76302,401
9.76873,686
9.77445,237
9.78018,178
9.7859,344
9.79162,379
9.79735,424
9.80307,150
9.80878,0
9.81452,351
9.82023,442
9.82595,371
9.83168,164
9.8374,382
9.84312,376
9.84885,431
9.85457,423
9.86028,384
9.86602,178
9.87173,392
9.87745,161
9.88317,331
9.8889,525
9.89462,402
9.90033,615
9.90607,428
9.91178,524
9.9175,0
9.92323,150
9.92895,538
9.93467,597
9.9404,221
9.94612,628
9.95183,155
9.95757,459
9.96328,204
9.969,507
9.97473,158
9.98045,218
9.98617,189
9.9919,685
9.99762,319
10.0033,172
10.0091,317
10.0148,276
10.0205,0
10.0262,237
10.032,372
10.0377,445
10.0434,431
10.0491,557
10.0548,376
10.0606,178
10.0663,450
10.072,0
10.0777,483
10.0835,466
10.0892,165
10.0949,523
10.1006,197
10.1063,459
10.1121,180
10.1178,161
10.1235,658
10.1292,212
10.135,397
10.1407,211
10.1464,220
10.1521,275
10.1578,200
10.1636,392
10.1693,232
10.175,164
10.1807,289
10.1864,169
10.1922,407
10.1979,329
10.2036,607
10.2093,231
10.2151,539
10.2208,583
10.2265,154
10.2322,0
10.2379,330
10.2437,200
10.2494,201
10.2551,194
10.2608,539
10.2666,0
10.2723,428
10.278,704
10.2837,734
10.2894,322
10.2952,682
10.3009,274
10.3066,0
10.3123,171
10.3181,191
10.3238,180
10.3295,0
10.3352,439
10.3409,205
10.3467,384
10.3524,363
10.3581,168
10.3638,562
10.3696,512
10.3753,526
10.381,310
10.3867,432
10.3924,593
10.3982,405
10.4039,372
10.4096,172
10.4153,374
10.421,0
10.4268,234
10.4325,166
10.4382,473
10.4439,353
10.4497,177
10.4554,309
10.4611,151
10.4668,179
10.4725,0
10.4783,371
10.484,348
10.4897,208
10.4954,665
10.5012,372
10.5069,335
10.5126,0
10.5183,271
10.524,0
10.5298,0
10.5355,150
10.5412,197
10.5469,213
10.5527,351
10.5584,167
10.5641,278
10.5698,838
10.5755,861
10.5813,1024
10.587,680
10.5927,541
10.5984,185
10.6042,154
10.6099,152
10.6156,378
10.6213,334
10.627,570
10.6328,193
10.6385,184
10.6442,650
10.6499,150
10.6556,302
10.6614,764
10.6671,521
10.6728,181
10.6785,607
10.6843,358
10.69,387
10.6957,382
10.7014,224
10.7071,284
10.7129,207
10.7186,398
10.7243,551
10.73,364
10.7358,0
10.7415,249
10.7472,491
10.7529,428
10.7586,479
10.7644,533
10.7701,355
10.7758,0
10.7815,0
10.7873,228
10.793,190
10.7987,487
10.8044,0
10.8101,0
10.8159,339
10.8216,179
10.8273,0
10.833,151
10.8388,457
10.8445,937
10.8502,2566
10.8559,4451
10.8616,4869
10.8674,4496
10.8731,3015
10.8788,2075
10.8845,1830
10.8903,1315
10.896,1342
10.9017,922
10.9074,671
10.9131,267
10.9189,508
10.9246,513
10.9303,394
10.936,433
10.9417,0
10.9475,161
10.9532,238
10.9589,429
10.9646,1013
10.9704,964
10.9761,550
10.9818,374
10.9875,715
10.9932,0
10.999,0
11.0047,221
11.0104,583
11.0161,151
11.0219,181
11.0276,439
11.0333,318
11.039,221
11.0447,211
11.0505,276
11.0562,180
11.0619,597
11.0676,0
11.0734,0
11.0791,0
11.0848,288
11.0905,179
11.0962,155
11.102,356
11.1077,263
11.1134,542
11.1191,1938
11.1249,6260
11.1306,15455
11.1363,26250
11.142,32743
11.1477,30058
11.1535,18898
11.1592,8628
11.1649,2560
11.1706,528
11.1763,193
11.1821,542
11.1878,508
11.1935,210
11.1992,162
11.205,161
11.2107,251
11.2164,208
11.2221,0
11.2278,0
11.2336,337
11.2393,367
11.245,355
11.2507,340
11.2565,0
11.2622,339
11.2679,363
11.2736,456
11.2793,264
11.2851,175
11.2908,427
11.2965,0
11.3022,194
11.308,401
11.3137,170
11.3194,0
11.3251,769
11.3308,478
11.3366,0
11.3423,204
11.348,425
11.3537,154
11.3595,362
11.3652,348
11.3709,349
11.3766,493
11.3823,224
11.3881,164
11.3938,255
11.3995,201
11.4052,253
11.4109,196
11.4167,161
11.4224,367
11.4281,413
11.4338,194
11.4396,1021
11.4453,1077
11.451,1423
11.4567,1064
11.4624,918
11.4682,335
11.4739,519
11.4796,423
11.4853,616
11.4911,192
11.4968,495
11.5025,376
11.5082,517
11.5139,473
11.5197,597
11.5254,761
11.5311,530
11.5368,180
11.5426,0
11.5483,0
11.554,316
11.5597,0
11.5654,0
11.5712,405
11.5769,194
11.5826,0
11.5883,439
11.5941,348
11.5998,0
11.6055,0
11.6112,176
11.6169,519
11.6227,0
11.6284,205
11.6341,152
11.6398,419
11.6456,397
11.6513,367
11.657,430
11.6627,375
11.6684,160
11.6742,152
11.6799,209
11.6856,366
11.6913,221
11.697,183
11.7028,0
11.7085,229
11.7142,212
11.7199,177
11.7257,185
11.7314,339
11.7371,403
11.7428,495
11.7485,0
11.7543,232
11.76,208
11.7657,191
11.7714,154
11.7772,198
11.7829,0
11.7886,170
11.7943,174
11.8,162
11.8058,174
11.8115,409
11.8172,0
11.8229,152
11.8287,0
11.8344,461
11.8401,155
11.8458,232
11.8515,365
11.8573,0
11.863,468
11.8687,219
11.8744,0
11.8802,475
11.8859,194
11.8916,339
11.8973,234
11.903,325
11.9088,378
11.9145,0
11.9202,179
11.9259,0
11.9316,151
11.9374,241
11.9431,184
11.9488,0
11.9545,194
11.9603,163
11.966,150
11.9717,334
11.9774,0
11.9831,163
11.9889,188
11.9946,0
12.0003,434
12.006,181
12.0118,428
12.0175,0
12.0232,160
12.0289,0
12.0346,174
12.0404,585
12.0461,157
12.0518,163
12.0575,0
12.0633,0
12.069,151
12.0747,353
12.0804,0
12.0861,151
12.0919,340
12.0976,178
12.1033,187
12.109,0
12.1148,0
12.1205,0
12.1262,0
12.1319,157
12.1376,186
12.1434,0
12.1491,226
12.1548,398
12.1605,175
12.1662,159
12.172,193
12.1777,0
12.1834,581
12.1891,375
12.1949,189
12.2006,309
12.2063,0
12.212,0
12.2177,0
12.2235,0
12.2292,158
12.2349,161
12.2406,234
12.2464,376
12.2521,0
12.2578,0
12.2635,154
12.2692,0
12.275,162
12.2807,0
12.2864,277
12.2921,442
12.2979,0
12.3036,152
12.3093,160
12.315,256
12.3207,175
12.3265,0
12.3322,167
12.3379,228
12.3436,191
12.3494,0
12.3551,242
12.3608,189
12.3665,0
12.3722,0
12.378,172
12.3837,0
12.3894,0
12.3951,0
12.4009,191
12.4066,0
12.4123,0
12.418,156
12.4237,152
12.4295,0
12.4352,150
12.4409,342
12.4466,168
12.4523,0
12.4581,0
12.4638,244
12.4695,0
12.4752,232
12.481,187
12.4867,0
12.4924,186
12.4981,254
12.5038,0
12.5096,173
12.5153,381
12.521,0
12.5267,163
12.5325,167
12.5382,152
12.5439,0
12.5496,336
12.5553,0
12.5611,327
12.5668,370
12.5725,354
12.5782,0
12.584,0
12.5897,0
12.5954,0
12.6011,199
12.6068,0
12.6126,164
12.6183,0
12.624,190
12.6297,443
12.6355,182
12.6412,195
12.6469,421
12.6526,168
12.6583,304
12.6641,1062
12.6698,1143
12.6755,816
12.6812,0
12.6869,0
12.6927,190
12.6984,0
12.7041,550
12.7098,771
12.7156,1137
12.7213,1169
12.727,366
12.7327,749
12.7384,0
12.7442,212
12.7499,0
12.7556,182
12.7613,166
12.7671,603
12.7728,308
12.7785,389
12.7842,393
12.7899,0
12.7957,159
12.8014,237
12.8071,0
12.8128,357
12.8186,0
12.8243,355
12.83,157
12.8357,178
12.8414,341
12.8472,194
12.8529,0
12.8586,0
12.8643,0
12.8701,260
12.8758,224
12.8815,0
12.8872,167
12.8929,0
12.8987,169
12.9044,0
12.9101,173
12.9158,193
12.9215,0
12.9273,195
12.933,395
12.9387,1872
12.9444,5176
12.9502,11804
12.9559,18529
12.9616,20754
12.9673,17674
12.973,7360
12.9788,3581
12.9845,1129
12.9902,297
12.9959,379
13.0017,266
13.0074,340
13.0131,181
13.0188,0
13.0245,371
13.0303,0
13.036,406
13.0417,239
13.0474,743
13.0532,539
13.0589,1191
13.0646,448
13.0703,355
13.076,0
13.0818,0
13.0875,180
13.0932,331
13.0989,171
13.1047,480
13.1104,784
13.1161,1185
13.1218,2248
13.1275,1705
13.1333,1084
13.139,1237
13.1447,1208
13.1504,863
13.1562,323
13.1619,169
13.1676,416
13.1733,726
13.179,0
13.1848,205
13.1905,372
13.1962,727
13.2019,1436
13.2076,2062
13.2134,996
13.2191,848
13.2248,312
13.2305,329
13.2363,641
13.242,384
13.2477,801
13.2534,163
13.2591,0
13.2649,323
13.2706,451
13.2763,358
13.282,0
13.2878,336
13.2935,0
13.2992,344
13.3049,329
13.3106,431
13.3164,389
13.3221,156
13.3278,416
13.3335,395
13.3393,321
13.345,0
13.3507,151
13.3564,322
13.3621,0
13.3679,184
13.3736,623
13.3793,0
13.385,350
13.3908,612
13.3965,460
13.4022,0
13.4079,765
13.4136,160
13.4194,0
13.4251,475
13.4308,159
13.4365,158
13.4422,387
13.448,348
13.4537,254
13.4594,353
13.4651,208
13.4709,228
13.4766,251
13.4823,178
13.488,152
13.4937,166
13.4995,0
13.5052,288
13.5109,243
13.5166,0
13.5224,310
13.5281,545
13.5338,365
13.5395,154
13.5452,0
13.551,0
13.5567,0
13.5624,622
13.5681,345
13.5739,218
13.5796,159
13.5853,0
13.591,333
13.5967,0
13.6025,0
13.6082,341
13.6139,191
13.6196,164
13.6254,179
13.6311,0
13.6368,175
13.6425,391
13.6482,583
13.654,167
13.6597,312
13.6654,0
13.6711,212
13.6769,437
13.6826,0
13.6883,0
13.694,0
13.6997,159
13.7055,351
13.7112,173
13.7169,170
13.7226,383
13.7283,208
13.7341,155
13.7398,348
13.7455,181
13.7512,369
13.757,0
13.7627,337
13.7684,213
13.7741,180
13.7798,391
13.7856,187
13.7913,578
13.797,214
13.8027,246
13.8085,0
13.8142,279
13.8199,397
13.8256,181
13.8313,0
13.8371,477
13.8428,0
13.8485,174
13.8542,450
13.86,329
13.8657,0
13.8714,0
13.8771,0
13.8828,0
13.8886,0
13.8943,287
13.9,0
13.9057,167
13.9115,238
13.9172,185
13.9229,169
13.9286,173
13.9343,0
13.9401,204
13.9458,194
13.9515,0
13.9572,427
13.9629,199
13.9687,354
13.9744,281
13.9801,0
13.9858,175
13.9916,164
13.9973,0
14.003,235
14.0087,180
14.0144,168
14.0202,219
14.0259,320
14.0316,244
14.0373,414
14.0431,205
14.0488,0
14.0545,0
14.0602,253
14.0659,0
14.0717,179
14.0774,313
14.0831,0
14.0888,0
14.0946,184
14.1003,288
14.106,194
14.1117,0
14.1174,212
14.1232,0
14.1289,173
14.1346,163
14.1403,157
14.1461,0
14.1518,0
14.1575,163
14.1632,228
14.1689,184
14.1747,573
14.1804,221
14.1861,162
14.1918,157
14.1975,187
14.2033,185
14.209,175
14.2147,0
14.2204,0
14.2262,209
14.2319,235
14.2376,203
14.2433,309
14.249,318
14.2548,0
14.2605,537
14.2662,348
14.2719,313
14.2777,0
14.2834,350
14.2891,0
14.2948,0
14.3005,150
14.3063,0
14.312,371
14.3177,240
14.3234,233
14.3292,217
14.3349,266
14.3406,194
14.3463,200
14.352,0
14.3578,151
14.3635,0
14.3692,324
14.3749,0
14.3807,177
14.3864,245
14.3921,191
14.3978,264
14.4035,0
14.4093,0
14.415,453
14.4207,0
14.4264,263
14.4322,204
14.4379,0
14.4436,152
14.4493,261
14.455,400
14.4608,215
14.4665,350
14.4722,180
14.4779,337
14.4836,0
14.4894,301
14.4951,548
14.5008,702
14.5065,2991
14.5123,7103
14.518,10042
14.5237,11670
14.5294,9360
14.5351,5680
14.5409,2409
14.5466,857
14.5523,182
14.558,323
14.5638,339
14.5695,366
14.5752,417
14.5809,0
14.5866,450
14.5924,242
14.5981,192
14.6038,285
14.6095,407
14.6153,245
14.621,323
14.6267,251
14.6324,418
14.6381,380
14.6439,511
14.6496,157
14.6553,325
14.661,201
14.6668,169
14.6725,0
14.6782,387
14.6839,150
14.6896,217
14.6954,207
14.7011,169
14.7068,150
14.7125,266
14.7182,166
14.724,0
14.7297,0
14.7354,0
14.7411,260
14.7469,0
14.7526,227
14.7583,447
14.764,0
14.7697,217
14.7755,412
14.7812,172
14.7869,552
14.7926,348
14.7984,0
14.8041,669
14.8098,0
14.8155,0
14.8212,370
14.827,177
14.8327,0
14.8384,160
14.8441,155
14.8499,162
14.8556,168
14.8613,214
14.867,170
14.8727,246
14.8785,0
14.8842,330
14.8899,158
14.8956,201
14.9014,458
14.9071,536
14.9128,582
14.9185,208
14.9242,0
14.93,181
14.9357,0
14.9414,173
14.9471,443
14.9528,0
14.9586,173
14.9643,387
14.97,171
14.9757,507
14.9815,0
14.9872,228
14.9929,249
14.9986,343
15.0043,323
15.0101,386
15.0158,407
15.0215,878
15.0272,719
15.033,252
15.0387,0
15.0444,156
15.0501,0
15.0558,0
15.0616,661
15.0673,494
15.073,0
15.0787,278
15.0845,547
15.0902,0
15.0959,367
15.1016,431
15.1073,451
15.1131,406
15.1188,176
15.1245,352
15.1302,366
15.136,462
15.1417,349
15.1474,569
15.1531,397
15.1588,0
15.1646,403
15.1703,261
15.176,293
15.1817,243
15.1875,411
15.1932,391
15.1989,174
15.2046,202
15.2103,431
15.2161,246
15.2218,0
15.2275,181
15.2332,152
15.2389,176
15.2447,252
15.2504,0
15.2561,158
15.2618,297
15.2676,154
15.2733,605
15.279,328
15.2847,597
15.2904,327
15.2962,0
15.3019,249
15.3076,631
15.3133,150
15.3191,395
15.3248,503
15.3305,557
15.3362,0
15.3419,275
15.3477,536
15.3534,268
15.3591,154
15.3648,0
15.3706,0
15.3763,376
15.382,402
15.3877,316
15.3934,228
15.3992,164
15.4049,188
15.4106,226
15.4163,232
15.4221,391
15.4278,228
15.4335,510
15.4392,225
15.4449,462
15.4507,164
15.4564,368
15.4621,654
15.4678,245
15.4735,293
15.4793,370
15.485,344
15.4907,369
15.4964,205
15.5022,420
15.5079,160
15.5136,0
15.5193,160
15.525,0
15.5308,0
15.5365,401
15.5422,359
15.5479,186
15.5537,215
15.5594,372
15.5651,400
15.5708,251
15.5765,494
15.5823,179
15.588,0
15.5937,0
15.5994,168
15.6052,0
15.6109,158
15.6166,595
15.6223,345
15.628,399
15.6338,511
15.6395,238
15.6452,374
15.6509,386
15.6567,400
15.6624,439
15.6681,605
15.6738,0
15.6795,553
15.6853,435
15.691,258
15.6967,394
15.7024,0
15.7081,344
15.7139,603
15.7196,342
15.7253,498
15.731,189
15.7368,160
15.7425,188
15.7482,164
15.7539,227
15.7596,345
15.7654,1098
15.7711,596
15.7768,0
15.7825,646
15.7883,658
15.794,168
15.7997,419
15.8054,209
15.8111,225
15.8169,328
15.8226,248
15.8283,459
15.834,371
15.8398,343
15.8455,570
15.8512,196
15.8569,321
15.8626,263
15.8684,630
15.8741,394
15.8798,185
15.8855,525
15.8913,341
15.897,222
15.9027,1100
15.9084,2530
15.9141,4500
15.9199,5720
15.9256,7313
15.9313,4875
15.937,2829
15.9428,1257
15.9485,536
15.9542,631
15.9599,848
15.9656,422
15.9714,489
15.9771,421
15.9828,596
15.9885,220
15.9942,565
16,625
16.0057,417
16.0114,445
16.0171,154
16.0228,455
16.0286,0
16.0343,645
16.04,470
16.0457,247
16.0515,260
16.0572,345
16.0629,440
16.0686,503
16.0743,315
16.0801,420
16.0858,550
16.0915,226
16.0972,263
16.103,535
16.1087,409
16.1144,464
16.1201,402
16.1259,202
16.1316,625
16.1373,320
16.143,377
16.1487,327
16.1545,327
16.1602,339
16.1659,259
16.1716,627
16.1774,537
16.1831,486
16.1888,339
16.1945,178
16.2002,409
16.206,495
16.2117,648
16.2174,241
16.2231,232
16.2288,508
16.2346,241
16.2403,535
16.246,512
16.2517,607
16.2574,430
16.2632,583
16.2689,304
16.2746,410
16.2803,758
16.2861,464
16.2918,584
16.2975,339
16.3032,167
16.3089,414
16.3147,516
16.3204,563
16.3261,261
16.3318,330
16.3376,412
16.3433,416
16.349,322
16.3547,488
16.3605,621
16.3662,643
16.3719,498
16.3776,441
16.3833,538
16.3891,688
16.3948,472
16.4005,597
16.4062,623
16.412,536
16.4177,300
16.4234,609
16.4291,459
16.4348,267
16.4406,353
16.4463,627
16.452,565
16.4577,159
16.4634,504
16.4692,612
16.4749,575
16.4806,354
16.4863,388
16.492,411
16.4978,167
16.5035,415
16.5092,862
16.5149,309
16.5207,629
16.5264,524
16.5321,232
16.5378,538
16.5436,356
16.5493,182
16.555,281
16.5607,616
16.5664,296
16.5722,476
16.5779,380
16.5836,581
16.5893,560
16.5951,704
16.6008,288
16.6065,426
16.6122,759
16.6179,739
16.6237,442
16.6294,443
16.6351,390
16.6408,612
16.6466,493
16.6523,819
16.658,424
16.6637,730
16.6694,751
16.6751,557
16.6809,672
16.6866,445
16.6923,663
16.698,570
16.7038,406
16.7095,701
16.7152,660
16.7209,612
16.7266,729
16.7324,676
16.7381,784
16.7438,368
16.7495,509
16.7553,207
16.761,274
16.7667,729
16.7724,318
16.7782,424
16.7839,726
16.7896,848
16.7953,769
16.801,739
16.8068,935
16.8125,564
16.8182,541
16.8239,703
16.8297,628
16.8354,549
16.8411,593
16.8468,722
16.8525,680
16.8583,696
16.864,983
16.8697,675
16.8754,1048
16.8812,716
16.8869,766
16.8926,232
16.8983,505
16.904,723
16.9097,314
16.9155,407
16.9212,653
16.9269,643
16.9326,484
16.9384,705
16.9441,570
16.9498,654
16.9555,727
16.9613,971
16.967,874
16.9727,511
16.9784,515
16.9841,595
16.9899,729
16.9956,691
17.0013,895
17.007,905
17.0128,362
17.0185,495
17.0242,905
17.0299,334
17.0356,354
17.0414,435
17.0471,570
17.0528,777
17.0585,760
17.0643,297
17.07,769
17.0757,729
17.0814,636
17.0871,794
17.0928,735
17.0986,551
17.1043,792
17.11,792
17.1157,977
17.1215,827
17.1272,1139
17.1329,329
17.1386,347
17.1443,564
17.1501,1095
17.1558,459
17.1615,704
17.1672,678
17.173,849
17.1787,662
17.1844,849
17.1901,2167
17.1959,3595
17.2016,4052
17.2073,6125
17.213,4791
17.2187,3771
17.2245,2585
17.2302,1850
17.2359,1080
17.2416,1268
17.2474,961
17.2531,980
17.2588,683
17.2645,1087
17.2702,573
17.276,880
17.2817,793
17.2874,598
17.2931,679
17.2989,920
17.3046,624
17.3103,936
17.316,841
17.3217,833
17.3275,900
17.3332,905
17.3389,843
17.3446,862
17.3503,885
17.3561,739
17.3618,801
17.3675,713
17.3732,1105
17.379,916
17.3847,1124
17.3904,717
17.3961,1107
17.4019,922
17.4076,657
17.4133,1055
17.419,1002
17.4247,853
17.4305,700
17.4362,671
17.4419,869
17.4476,575
17.4534,1322
17.4591,1101
17.4648,758
17.4705,745
17.4762,1219
17.482,729
17.4877,795
17.4934,927
17.4991,1063
17.5048,684
17.5106,897
17.5163,907
17.522,568
17.5277,1046
17.5335,1064
17.5392,870
17.5449,1039
17.5506,972
17.5563,862
17.5621,1191
17.5678,752
17.5735,921
17.5792,1064
17.5849,900
17.5907,976
17.5964,1026
17.6021,706
17.6078,893
17.6136,1360
17.6193,852
17.625,1018
17.6307,869
17.6365,759
17.6422,687
17.6479,930
17.6536,467
17.6593,1158
17.6651,768
17.6708,1282
17.6765,962
17.6822,1167
17.688,980
17.6937,1038
17.6994,1169
17.7051,1152
17.7108,1158
17.7166,867
17.7223,1240
17.728,889
17.7337,1229
17.7394,976
17.7452,1038
17.7509,1331
17.7566,1409
17.7623,965
17.7681,1229
17.7738,1008
17.7795,1069
17.7852,1174
17.7909,981
17.7967,1259
17.8024,944
17.8081,1080
17.8138,892
17.8196,1258
17.8253,1480
17.831,1478
17.8367,1150
17.8424,857
17.8482,955
17.8539,1265
17.8596,986
17.8653,1217
17.8711,1043
17.8768,1193
17.8825,1191
17.8882,1318
17.8939,880
17.8997,1270
17.9054,1216
17.9111,2016
17.9168,2538
17.9226,2518
17.9283,1549
17.934,1587
17.9397,1002
17.9454,1039
17.9512,1160
17.9569,1140
17.9626,1107
17.9683,1097
17.9741,1481
17.9798,1139
17.9855,956
17.9912,1016
17.9969,1581
18.0026,1352
18.0084,1164
18.0141,1635
18.0198,1225
18.0255,1142
18.0313,1491
18.037,1282
18.0427,1571
18.0484,1319
18.0542,1610
18.0599,996
18.0656,1660
18.0713,1378
18.077,1608
18.0828,1007
18.0885,967
18.0942,1433
18.0999,1572
18.1057,1531
18.1114,1380
18.1171,1036
18.1228,1316
18.1285,1393
18.1343,1436
18.14,1428
18.1457,1198
18.1514,1612
18.1572,1492
18.1629,1697
18.1686,1272
18.1743,1356
18.18,1610
18.1858,1515
18.1915,1135
18.1972,1579
18.2029,1393
18.2087,1687
18.2144,1646
18.2201,1921
18.2258,1606
18.2315,1381
18.2373,1517
18.243,1693
18.2487,1225
18.2544,1527
18.2601,1883
18.2659,1250
18.2716,1439
18.2773,1231
18.283,1528
18.2888,1609
18.2945,1221
18.3002,1262
18.3059,1715
18.3116,1876
18.3174,1237
18.3231,1847
18.3288,2455
18.3345,1559
18.3403,1834
18.346,2131
18.3517,2012
18.3574,3077
18.3631,4821
18.3689,6523
18.3746,6924
18.3803,4929
18.386,3413
18.3918,1910
18.3975,1728
18.4032,1892
18.4089,2458
18.4146,1691
18.4203,1738
18.4261,1311
18.4318,1735
18.4375,1243
18.4433,2193
18.449,1701
18.4547,1884
18.4604,1544
18.4661,1498
18.4719,1500
18.4776,2039
18.4833,1874
18.489,2253
18.4947,2075
18.5005,1587
18.5062,2203
18.5119,2034
18.5176,1988
18.5234,1903
18.5291,1732
18.5348,1667
18.5405,1718
18.5462,1538
18.552,2604
18.5577,1822
18.5634,2156
18.5691,2251
18.5749,1828
18.5806,2452
18.5863,2185
18.592,2159
18.5977,2317
18.6035,1975
18.6092,1769
18.6149,1797
18.6206,2267
18.6264,2342
18.6321,1722
18.6378,1776
18.6435,1820
18.6492,2531
18.6549,2106
18.6607,1828
18.6664,2659
18.6721,1750
18.6778,1843
18.6836,2614
18.6893,2891
18.695,2375
18.7007,2322
18.7065,2298
18.7122,1994
18.7179,1853
18.7236,1775
18.7294,3334
18.7351,8500
18.7408,14156
18.7465,22207
18.7522,24089
18.758,19449
18.7637,12019
18.7694,6406
18.7751,4274
18.7808,3506
18.7866,2621
18.7923,3162
18.798,2337
18.8037,2147
18.8095,3462
18.8152,3418
18.8209,2261
18.8266,2673
18.8323,2554
18.8381,1920
18.8438,2059
18.8495,2073
18.8552,2525
18.861,2663
18.8667,2005
18.8724,2649
18.8781,2787
18.8838,2773
18.8896,2740
18.8953,2452
18.901,3121
18.9067,2693
18.9125,2418
18.9182,2989
18.9239,2135
18.9296,3360
18.9353,2633
18.9411,2751
18.9468,2257
18.9525,2513
18.9582,2780
18.964,2589
18.9697,2969
18.9754,2978
18.9811,3022
18.9868,2437
18.9926,2914
18.9983,3098
19.004,2861
19.0097,2594
19.0154,2263
19.0212,2578
19.0269,2847
19.0326,3045
19.0383,2493
19.0441,3120
19.0498,3034
19.0555,2969
19.0612,2719
19.0669,2790
19.0727,3529
19.0784,3365
19.0841,2770
19.0898,3119
19.0955,2576
19.1013,2475
19.107,3288
19.1127,3012
19.1184,3296
19.1242,3128
19.1299,2783
19.1356,2582
19.1413,3139
19.1471,3064
19.1528,3014
19.1585,3782
19.1642,3273
19.1699,3089
19.1757,3465
19.1814,3649
19.1871,2922
19.1928,2736
19.1986,3344
19.2043,2699
19.21,3107
19.2157,2834
19.2214,3065
19.2272,3782
19.2329,4199
19.2386,3269
19.2443,3030
19.25,3062
19.2558,2993
19.2615,3842
19.2672,2820
19.2729,3427
19.2787,2281
19.2844,3143
19.2901,2465
19.2958,3631
19.3015,2950
19.3073,3051
19.313,2916
19.3187,3292
19.3244,3939
19.3302,3577
19.3359,3029
19.3416,3953
19.3473,4081
19.353,3540
19.3588,2920
19.3645,4231
19.3702,4172
19.3759,3558
19.3817,2776
19.3874,3602
19.3931,3609
19.3988,3371
19.4045,4205
19.4103,4055
19.416,3789
19.4217,4285
19.4274,5514
19.4332,7092
19.4389,9271
19.4446,8867
19.4503,8262
19.456,6359
19.4618,5234
19.4675,4242
19.4732,4424
19.4789,4154
19.4847,4282
19.4904,4044
19.4961,3913
19.5018,4532
19.5075,3516
19.5132,3742
19.519,3402
19.5247,3713
19.5304,4118
19.5361,4537
19.5419,3698
19.5476,4359
19.5533,4575
19.559,4952
19.5648,4434
19.5705,4095
19.5762,3965
19.5819,4212
19.5876,4834
19.5934,4678
19.5991,4236
19.6048,3910
19.6105,4477
19.6163,4649
19.622,5175
19.6277,4722
19.6334,3790
19.6391,5071
19.6449,4255
19.6506,4174
19.6563,3844
19.662,4331
19.6678,4122
19.6735,4365
19.6792,4606
19.6849,4244
19.6906,5196
19.6964,5024
19.7021,4230
19.7078,4823
19.7135,4547
19.7193,4155
19.725,3753
19.7307,4635
19.7364,4695
19.7421,5288
19.7479,5268
19.7536,4250
19.7593,4520
19.765,5463
19.7707,5451
19.7765,4268
19.7822,4560
19.7879,4973
19.7936,4892
19.7994,4910
19.8051,4801
19.8108,5274
19.8165,5526
19.8222,5087
19.828,5245
19.8337,4387
19.8394,4572
19.8451,5569
19.8509,5585
19.8566,4624
19.8623,5670
19.868,5935
19.8737,6120
19.8795,5271
19.8852,4606
19.8909,5130
19.8966,4938
19.9024,5913
19.9081,4870
19.9138,6139
19.9195,5302
19.9252,5273
19.9309,5463
19.9367,6664
19.9424,5445
19.9481,5751
19.9538,5143
19.9596,5619
19.9653,5762
19.971,6335
19.9767,6220
19.9825,5765
19.9882,5769
19.9939,5507
19.9996,5594
20.0053,5394
20.0111,5658
20.0168,5270
20.0225,6796
20.0282,5988
20.034,6597
20.0397,5625
20.0454,5861
20.0511,6035
20.0568,5554
20.0626,5334
20.0683,5905
20.074,6360
20.0797,6383
20.0855,7048
20.0912,6805
20.0969,5336
20.1026,6139
20.1083,6355
20.1141,6277
20.1198,5650
20.1255,5840
20.1312,6475
20.137,6096
20.1427,6612
20.1484,5939
20.1541,6973
20.1598,6813
20.1656,6824
20.1713,7108
20.177,5781
20.1827,5855
20.1885,5648
20.1942,5907
20.1999,6479
20.2056,6107
20.2113,6953
20.2171,7223
20.2228,6444
20.2285,6891
20.2342,7112
20.24,6821
20.2457,7013
20.2514,7178
20.2571,8018
20.2628,6909
20.2686,7253
20.2743,5974
20.28,7083
20.2857,6869
20.2914,8079
20.2972,6920
20.3029,7872
20.3086,7946
20.3143,7421
20.3201,7115
20.3258,7750
20.3315,7083
20.3372,6475
20.3429,7028
20.3487,7309
20.3544,7320
20.3601,7010
20.3658,7877
20.3716,7360
20.3773,7503
20.383,7364
20.3887,8006
20.3944,7343
20.4002,7208
20.4059,7226
20.4116,7293
20.4173,8215
20.4231,8103
20.4288,8075
20.4345,9917
20.4402,11770
20.4459,12671
20.4517,12052
20.4574,11233
20.4631,9705
20.4688,9112
20.4746,7682
20.4803,7964
20.486,7129
20.4917,8760
20.4974,7936
20.5032,7984
20.5089,8038
20.5146,8850
20.5203,8114
20.526,7789
20.5318,8448
20.5375,9377
20.5432,8022
20.5489,8573
20.5547,8067
20.5604,8657
20.5661,8965
20.5718,8592
20.5775,8793
20.5833,8995
20.589,8478
20.5947,9749
20.6004,9081
20.6062,9100
20.6119,8919
20.6176,8930
20.6233,8114
20.629,8152
20.6348,9250
20.6405,9392
20.6462,8740
20.6519,9317
20.6577,10521
20.6634,8606
20.6691,9245
20.6748,8519
20.6805,9344
20.6863,9590
20.692,9469
20.6977,8867
20.7034,8994
20.7092,9806
20.7149,9201
20.7206,8640
20.7263,9655
20.732,10069
20.7378,9537
20.7435,9837
20.7492,9854
20.7549,10161
20.7606,9453
20.7664,10267
20.7721,9351
20.7778,10012
20.7835,9767
20.7893,10122
20.795,9177
20.8007,11523
20.8064,9887
20.8121,11141
20.8179,10142
20.8236,10444
20.8293,9763
20.835,11555
20.8408,10824
20.8465,10555
20.8522,10447
20.8579,10304
20.8636,11345
20.8694,10485
20.8751,9603
20.8808,9929
20.8865,10046
20.8923,11914
20.898,10854
20.9037,11920
20.9094,11170
20.9151,10015
20.9209,10596
20.9266,11615
20.9323,11578
20.938,10512
20.9438,11120
20.9495,12009
20.9552,11445
20.9609,12631
20.9666,11956
20.9724,12282
20.9781,11519
20.9838,11351
20.9895,11567
20.9953,11351
21.001,11182
21.0067,11611
21.0124,12686
21.0181,11578
21.0238,11772
21.0296,12433
21.0353,11478
21.041,12482
21.0467,12455
21.0525,12585
21.0582,13854
21.0639,12824
21.0696,12005
21.0754,12111
21.0811,13048
21.0868,13767
21.0925,12866
21.0982,11955
21.104,12919
21.1097,12029
21.1154,11553
21.1211,13274
21.1269,12748
21.1326,14477
21.1383,13544
21.144,13592
21.1497,12992
21.1555,11964
21.1612,13880
21.1669,13160
21.1726,13996
21.1784,12928
21.1841,13207
21.1898,14729
21.1955,14238
21.2012,14750
21.207,13381
21.2127,13686
21.2184,13695
21.2241,13392
21.2299,13405
21.2356,14273
21.2413,13432
21.247,14215
21.2527,14733
21.2585,13318
21.2642,14990
21.2699,12955
21.2756,14987
21.2813,15807
21.2871,14371
21.2928,15645
21.2985,14791
21.3042,15720
21.31,13905
21.3157,15416
21.3214,15461
21.3271,15238
21.3328,15928
21.3386,14772
21.3443,15436
21.35,15420
21.3557,14375
21.3615,15562
21.3672,18245
21.3729,16367
21.3786,16681
21.3843,17680
21.3901,19175
21.3958,18466
21.4015,16966
21.4072,14019
21.413,15789
21.4187,15600
21.4244,16364
21.4301,16277
21.4358,16279
21.4415,15681
21.4473,18104
21.453,16537
21.4587,15821
21.4644,16559
21.4702,15801
21.4759,16676
21.4816,16415
21.4873,16506
21.4931,17562
21.4988,16615
21.5045,17682
21.5102,17931
21.516,16782
21.5217,16504
21.5274,17341
21.5331,15640
21.5388,17414
21.5446,16968
21.5503,18427
21.556,17197
21.5617,18681
21.5674,16802
21.5732,18318
21.5789,18598
21.5846,17679
21.5903,18577
21.5961,18127
21.6018,17940
21.6075,19153
21.6132,18036
21.6189,18723
21.6247,18180
21.6304,18425
21.6361,19560
21.6418,19352
21.6476,18263
21.6533,18522
21.659,17816
21.6647,18053
21.6704,18942
21.6762,18634
21.6819,18682
21.6876,19502
21.6933,18072
21.6991,19476
21.7048,19936
21.7105,19287
21.7162,19179
21.7219,19692
21.7277,20000
21.7334,20727
21.7391,18850
21.7448,20456
21.7506,19319
21.7563,18817
21.762,21445
21.7677,19609
21.7734,19385
21.7792,19240
21.7849,19886
21.7906,20019
21.7963,17665
21.802,19291
21.8078,19699
21.8135,20396
21.8192,22448
21.8249,21338
21.8307,21822
21.8364,21102
21.8421,20756
21.8478,20501
21.8535,23315
21.8593,21698
21.865,21556
21.8707,20610
21.8764,23229
21.8821,21206
21.8879,20708
21.8936,22255
21.8993,21726
21.905,23184
21.9108,21259
21.9165,20337
21.9222,21477
21.9279,22847
21.9337,22815
21.9394,22331
21.9451,21869
21.9508,22943
21.9565,21787
21.9623,23237
21.968,21347
21.9737,22475
21.9794,22173
21.9852,24368
21.9909,23147
21.9966,22589
22.0023,24208
22.008,23102
22.0138,24216
22.0195,24314
22.0252,22538
22.0309,24568
22.0366,22902
22.0424,24882
22.0481,23847
22.0538,25281
22.0595,24168
22.0653,26007
22.071,26351
22.0767,23822
22.0824,24152
22.0881,24584
22.0939,24380
22.0996,24741
22.1053,25282
22.111,25068
22.1168,25135
22.1225,23812
22.1282,25131
22.1339,25157
22.1396,25686
22.1454,24515
22.1511,24420
22.1568,25151
22.1625,25558
22.1683,25949
22.174,24248
22.1797,26193
22.1854,26178
22.1911,26124
22.1969,26550
22.2026,26332
22.2083,27645
22.214,27048
22.2198,27506
22.2255,26890
22.2312,26962
22.2369,27074
22.2426,25634
22.2484,24154
22.2541,26212
22.2598,27528
22.2655,30100
22.2713,30533
22.277,30117
22.2827,28125
22.2884,27201
22.2941,27658
22.2999,28052
22.3056,28134
22.3113,27581
22.317,29136
22.3227,28676
22.3285,29164
22.3342,28754
22.3399,27494
22.3456,28776
22.3514,26825
22.3571,27503
22.3628,29138
22.3685,28840
22.3742,29993
22.38,27739
22.3857,28018
22.3914,30142
22.3971,28243
22.4029,27936
22.4086,29052
22.4143,31126
22.42,30434
22.4257,30166
22.4315,27628
22.4372,29713
22.4429,29727
22.4486,28412
22.4544,29260
22.4601,29219
22.4658,28968
22.4715,29725
22.4772,31985
22.483,31382
22.4887,30359
22.4944,29727
22.5001,30540
22.5059,30513
22.5116,29729
22.5173,30489
22.523,31816
22.5287,32055
22.5345,31470
22.5402,32266
22.5459,30470
22.5516,31391
22.5573,29667
22.5631,32900
22.5688,32435
22.5745,33065
22.5802,32447
22.586,32384
22.5917,32575
22.5974,32606
22.6031,31411
22.6088,31059
22.6146,31698
22.6203,33231
22.626,31165
22.6317,33072
22.6375,33747
22.6432,32418
22.6489,33768
22.6546,31657
22.6603,32626
22.6661,34512
22.6718,33512
22.6775,31349
22.6832,34093
22.689,32682
22.6947,35222
22.7004,33281
22.7061,32866
22.7118,32518
22.7176,33408
22.7233,34597
22.729,34909
22.7347,36178
22.7405,33737
22.7462,34643
22.7519,33696
22.7576,33645
22.7633,35056
22.7691,34285
22.7748,35274
22.7805,34651
22.7862,36108
22.7919,37863
22.7977,36218
22.8034,36363
22.8091,35690
22.8148,35137
22.8206,34621
22.8263,36625
22.832,34089
22.8377,34994
22.8434,36469
22.8492,36005
22.8549,36846
22.8606,36670
22.8663,35860
22.8721,37731
22.8778,36833
22.8835,35094
22.8892,38143
22.8949,37359
22.9007,35923
22.9064,36136
22.9121,37278
22.9178,36449
22.9236,36422
22.9293,39363
22.935,37033
22.9407,36119
22.9464,38254
22.9522,37470
22.9579,40872
22.9636,37994
22.9693,38157
22.9751,38026
22.9808,38213
22.9865,36314
22.9922,38001
22.9979,37731
23.0037,39213
23.0094,39412
23.0151,38448
23.0208,38049
23.0266,37035
23.0323,39422
23.038,39075
23.0437,39458
23.0494,37542
23.0552,39295
23.0609,39679
23.0666,38366
23.0723,38400
23.078,38949
23.0838,39318
23.0895,38866
23.0952,42115
23.1009,38725
23.1067,41207
23.1124,41591
23.1181,41794
23.1238,40052
23.1295,39419
23.1353,39619
23.141,40597
23.1467,40698
23.1524,38423
23.1582,40385
23.1639,42358
23.1696,40129
23.1753,40914
23.181,40991
23.1868,42721
23.1925,41373
23.1982,40886
23.2039,38775
23.2097,41471
23.2154,43783
23.2211,43070
23.2268,40071
23.2325,40281
23.2383,40251
23.244,39719
23.2497,39890
23.2554,40726
23.2612,41879
23.2669,43694
23.2726,43699
23.2783,42991
23.284,42822
23.2898,43880
23.2955,41202
23.3012,43318
23.3069,44264
23.3126,41388
23.3184,41174
23.3241,41986
23.3298,43236
23.3355,43832
23.3413,43067
23.347,43814
23.3527,42518
23.3584,41008
23.3641,46093
23.3699,43495
23.3756,43198
23.3813,42942
23.387,44088
23.3927,42208
23.3985,42646
23.4042,46027
23.4099,43147
23.4156,43845
23.4214,44908
23.4271,43715
23.4328,43784
23.4385,42902
23.4443,44158
23.45,44240
23.4557,44519
23.4614,46281
23.4671,45281
23.4729,44774
23.4786,45034
23.4843,44797
23.49,45326
23.4958,42359
23.5015,44521
23.5072,43718
23.5129,47312
23.5186,45806
23.5244,43994
23.5301,43505
23.5358,45335
23.5415,47213
23.5472,45505
23.553,44504
23.5587,46149
23.5644,46880
23.5701,45788
23.5759,44654
23.5816,44844
23.5873,46259
23.593,44674
23.5987,45197
23.6045,46928
23.6102,47955
23.6159,45048
23.6216,47318
23.6274,46846
23.6331,46573
23.6388,44521
23.6445,47443
23.6502,44114
23.656,46786
23.6617,45702
23.6674,45973
23.6731,45021
23.6789,45090
23.6846,47543
23.6903,46304
23.696,46604
23.7017,47432
23.7075,44357
23.7132,48430
23.7189,45799
23.7246,46284
23.7304,46591
23.7361,43186
23.7418,45765
23.7475,47302
23.7532,46625
23.759,47138
23.7647,45064
23.7704,47567
23.7761,45631
23.7819,47028
23.7876,44655
23.7933,47171
23.799,47760
23.8047,46566
23.8104,45839
23.8162,48204
23.8219,47622
23.8276,46562
23.8333,49036
23.8391,45892
23.8448,48282
23.8505,46636
23.8562,45419
23.862,47206
23.8677,47461
23.8734,47103
23.8791,47899
23.8848,46504
23.8906,47994
23.8963,45933
23.902,47238
23.9077,46643
23.9135,49020
23.9192,47451
23.9249,46715
23.9306,48911
23.9363,46831
23.9421,46906
23.9478,48229
23.9535,47238
23.9592,48712
23.965,46691
23.9707,45690
23.9764,46535
23.9821,46676
23.9878,47369
23.9936,47117
23.9993,47803
24.005,45003
24.0107,47032
24.0165,46813
24.0222,47039
24.0279,46843
24.0336,48083
24.0393,45104
24.0451,46912
24.0508,47213
24.0565,46282
24.0622,48179
24.0679,48544
24.0737,45891
24.0794,48754
24.0851,48597
24.0908,44667
24.0966,45593
24.1023,47045
24.108,46746
24.1137,47527
24.1194,47130
24.1252,49085
24.1309,47358
24.1366,47706
24.1423,46113
24.1481,47013
24.1538,47267
24.1595,47435
24.1652,46835
24.1709,50047
24.1767,47218
24.1824,48303
24.1881,48502
24.1938,50139
24.1996,48942
24.2053,48860
24.211,48164
24.2167,46136
24.2224,45203
24.2281,44899
24.2339,46849
24.2396,45327
24.2453,48107
24.2511,46288
24.2568,46622
24.2625,47683
24.2682,43736
24.2739,47145
24.2797,47443
24.2854,47573
24.2911,47508
24.2968,48045
24.3025,47845
24.3083,45652
24.314,46202
24.3197,47831
24.3254,47370
24.3312,47189
24.3369,47374
24.3426,49257
24.3483,46926
24.354,46053
24.3598,48583
24.3655,46549
24.3712,48556
24.3769,48399
24.3827,46752
24.3884,48845
24.3941,47097
24.3998,48100
24.4055,46784
24.4113,45848
24.417,48715
24.4227,45600
24.4284,45728
24.4342,49514
24.4399,47710
24.4456,46129
24.4513,48150
24.457,47309
24.4628,48406
24.4685,48835
24.4742,48416
24.4799,48254
24.4857,50142
24.4914,46477
24.4971,47599
24.5028,46440
24.5085,48201
24.5143,48603
24.52,47917
24.5257,48000
24.5314,46518
24.5372,48954
24.5429,47415
24.5486,45719
24.5543,45958
24.56,47639
24.5658,48015
24.5715,46756
24.5772,48661
24.5829,47897
24.5886,45408
24.5944,46893
24.6001,46458
24.6058,49689
24.6115,48260
24.6173,49711
24.623,47566
24.6287,46679
24.6344,46307
24.6401,46327
24.6459,48793
24.6516,47961
24.6573,46725
24.663,47497
24.6688,46694
24.6745,45241
24.6802,48228
24.6859,47202
24.6916,46372
24.6974,47572
24.7031,46956
24.7088,48726
24.7145,47881
24.7203,47204
24.726,47541
24.7317,48738
24.7374,46841
24.7431,45644
24.7489,48213
24.7546,46579
24.7603,47452
24.766,50236
24.7718,45811
24.7775,46853
24.7832,48813
24.7889,47235
24.7946,48297
24.8004,47234
24.8061,48172
24.8118,49200
24.8175,45108
24.8232,47591
24.829,48015
24.8347,47244
24.8404,45572
24.8461,47752
24.8519,47882
24.8576,47564
24.8633,47237
24.869,48763
24.8747,46699
24.8805,47061
24.8862,48187
24.8919,46596
24.8976,46287
24.9034,45663
24.9091,46933
24.9148,47304
24.9205,50307
24.9262,48020
24.932,49580
24.9377,44647
24.9434,46228
24.9491,47241
24.9549,46566
24.9606,47484
24.9663,45336
24.972,46120
24.9777,47522
24.9835,47456
24.9892,49768
24.9949,47220
