C:\MSDCHEM\1\DATA\SERINA\20180424_NLTAB_FRESH\SLR2_12_NltB_2.d 24 Apr 18   3:47 pm
Start of data points
4.09265,5850
4.09838,5637
4.1041,5391
4.10982,4856
4.11555,6634
4.12127,5028
4.12698,5718
4.13272,4976
4.13843,4813
4.14415,4967
4.14988,5096
4.1556,4691
4.16132,4416
4.16705,4676
4.17277,4786
4.17848,4870
4.18422,5049
4.18993,4701
4.19565,4414
4.20137,4257
4.2071,4056
4.21282,4194
4.21853,3901
4.22427,3791
4.22998,4265
4.2357,4198
4.24143,4436
4.24715,3854
4.25287,3848
4.2586,4360
4.26432,3405
4.27003,3719
4.27577,3413
4.28148,3674
4.2872,3483
4.29293,4066
4.29865,3838
4.30437,3422
4.3101,4026
4.31582,2769
4.32153,3170
4.32725,3183
4.33298,3027
4.3387,3342
4.34442,3863
4.35015,3048
4.35587,3047
4.36158,2641
4.36732,3632
4.37303,2735
4.37875,3024
4.38448,3267
4.3902,3362
4.39592,2916
4.40165,2847
4.40737,2753
4.41308,2871
4.41882,2586
4.42453,3239
4.43025,3052
4.43598,2428
4.4417,2541
4.44742,1946
4.45313,2144
4.45887,3104
4.46458,2741
4.4703,2858
4.47603,2854
4.48175,2684
4.48747,2554
4.4932,2585
4.49892,3101
4.50463,2488
4.51037,2513
4.51608,2122
4.5218,2153
4.52753,2232
4.53325,2582
4.53897,2513
4.5447,2572
4.55042,2410
4.55613,2075
4.56187,2128
4.56758,2147
4.5733,2631
4.57902,2541
4.58475,2667
4.59047,2919
4.59618,2294
4.60192,1860
4.60763,2083
4.61335,1701
4.61908,1860
4.6248,2104
4.63052,2584
4.63625,2608
4.64197,2327
4.64768,1974
4.65342,1974
4.65913,2006
4.66485,1995
4.67058,2065
4.6763,2723
4.68202,2206
4.68775,1711
4.69347,2110
4.69918,2368
4.7049,1989
4.71063,2187
4.71635,1693
4.72207,1771
4.7278,1818
4.73352,2218
4.73923,2037
4.74497,2139
4.75068,1900
4.7564,2040
4.76213,2059
4.76785,1826
4.77357,1533
4.7793,1521
4.78502,1812
4.79073,2343
4.79647,2184
4.80218,1596
4.8079,2072
4.81363,2027
4.81935,1352
4.82507,1703
4.83078,1138
4.83652,1759
4.84223,1992
4.84795,1806
4.85368,1620
4.8594,1579
4.86512,1536
4.87085,1744
4.87657,1490
4.88228,1767
4.88802,1553
4.89373,2145
4.89945,1738
4.90518,1590
4.9109,2042
4.91662,1424
4.92235,1504
4.92807,1313
4.93378,1528
4.93952,1672
4.94523,1052
4.95095,1233
4.95667,1151
4.9624,1266
4.96812,1411
4.97383,1248
4.97957,1165
4.98528,1505
4.991,1441
4.99673,1331
5.00245,1421
5.00817,1106
5.0139,1268
5.01962,1478
5.02533,1112
5.03107,1433
5.03678,1404
5.0425,1366
5.04823,1187
5.05395,998
5.05967,1636
5.0654,1127
5.07112,1504
5.07683,1452
5.08255,1211
5.08828,1539
5.094,1320
5.09972,1024
5.10545,1540
5.11117,976
5.11688,1134
5.12262,1381
5.12833,1009
5.13405,1498
5.13978,1181
5.1455,1152
5.15122,1111
5.15695,1318
5.16267,1155
5.16838,997
5.17412,1159
5.17983,1297
5.18555,918
5.19128,941
5.197,1422
5.20272,996
5.20843,1397
5.21417,1292
5.21988,1316
5.2256,977
5.23133,1167
5.23705,1101
5.24277,1308
5.2485,813
5.25422,1368
5.25993,1398
5.26567,1118
5.27138,1306
5.2771,889
5.28283,1276
5.28855,1287
5.29427,1175
5.3,1667
5.30572,1349
5.31143,1127
5.31717,1448
5.32288,1037
5.3286,1256
5.33432,1274
5.34005,1303
5.34577,1677
5.35148,1434
5.35722,1052
5.36293,1052
5.36865,1316
5.37438,1131
5.3801,964
5.38582,1072
5.39155,1213
5.39727,1056
5.40298,1467
5.40872,1516
5.41443,1095
5.42015,820
5.42588,876
5.4316,1034
5.43732,1151
5.44305,986
5.44877,1528
5.45448,1337
5.4602,1032
5.46593,1154
5.47165,955
5.47737,1054
5.4831,1031
5.48882,1078
5.49453,958
5.50027,1235
5.50598,976
5.5117,1147
5.51743,1362
5.52315,986
5.52887,1084
5.5346,1120
5.54032,844
5.54603,917
5.55177,804
5.55748,1023
5.5632,954
5.56893,548
5.57465,1009
5.58037,1275
5.58608,1157
5.59182,1166
5.59753,1104
5.60325,1153
5.60898,1261
5.6147,959
5.62042,882
5.62615,1057
5.63187,871
5.63758,990
5.64332,1177
5.64903,906
5.65475,1049
5.66048,1152
5.6662,874
5.67192,947
5.67765,1054
5.68337,901
5.68908,1052
5.69482,1028
5.70053,727
5.70625,1053
5.71197,1152
5.7177,987
5.72342,829
5.72913,882
5.73487,816
5.74058,886
5.7463,724
5.75203,885
5.75775,892
5.76347,919
5.7692,1031
5.77492,806
5.78063,747
5.78637,755
5.79208,905
5.7978,900
5.80353,834
5.80925,1233
5.81497,726
5.8207,730
5.82642,1085
5.83213,818
5.83785,995
5.84358,829
5.8493,879
5.85502,1129
5.86075,643
5.86647,801
5.87218,831
5.87792,994
5.88363,865
5.88935,895
5.89508,827
5.9008,921
5.90652,978
5.91225,838
5.91797,1058
5.92368,1442
5.92942,950
5.93513,1212
5.94085,858
5.94658,812
5.9523,1154
5.95802,1175
5.96373,1338
5.96947,622
5.97518,977
5.9809,806
5.98663,1069
5.99235,1132
5.99807,1011
6.0038,1009
6.00952,1084
6.01523,594
6.02097,1258
6.02668,973
6.0324,851
6.03813,800
6.04385,775
6.04957,991
6.0553,839
6.06102,930
6.06673,642
6.07247,568
6.07818,816
6.0839,713
6.08962,654
6.09535,1077
6.10107,729
6.10678,970
6.11252,929
6.11823,898
6.12395,613
6.12968,778
6.1354,807
6.14112,864
6.14685,1160
6.15257,1140
6.15828,803
6.16402,896
6.16973,779
6.17545,805
6.18118,752
6.1869,874
6.19262,505
6.19835,960
6.20407,677
6.20978,672
6.2155,806
6.22123,702
6.22695,888
6.23267,661
6.2384,438
6.24412,869
6.24983,747
6.25557,1029
6.26128,883
6.267,1035
6.27273,753
6.27845,565
6.28417,461
6.2899,786
6.29562,873
6.30133,807
6.30707,984
6.31278,581
6.3185,551
6.32423,669
6.32995,578
6.33567,838
6.34138,746
6.34712,745
6.35283,703
6.35855,769
6.36428,938
6.37,788
6.37572,725
6.38145,853
6.38717,565
6.39288,869
6.39862,763
6.40433,489
6.41005,741
6.41578,804
6.4215,840
6.42722,540
6.43295,639
6.43867,747
6.44438,558
6.45012,1091
6.45583,605
6.46155,689
6.46727,576
6.473,905
6.47872,964
6.48443,766
6.49017,603
6.49588,837
6.5016,694
6.50733,832
6.51305,759
6.51877,592
6.5245,598
6.53022,366
6.53593,743
6.54167,840
6.54738,820
6.5531,488
6.55883,805
6.56455,887
6.57027,660
6.576,911
6.58172,750
6.58743,660
6.59315,741
6.59888,470
6.6046,859
6.61032,668
6.61605,670
6.62177,634
6.62748,474
6.63322,479
6.63893,579
6.64465,640
6.65038,1000
6.6561,902
6.66182,566
6.66755,546
6.67327,601
6.67898,478
6.68472,577
6.69043,609
6.69615,567
6.70188,745
6.7076,565
6.71332,553
6.71905,871
6.72477,983
6.73048,662
6.7362,621
6.74193,416
6.74765,773
6.75337,1024
6.7591,792
6.76482,958
6.77053,1337
6.77627,1243
6.78198,974
6.7877,912
6.79343,908
6.79915,773
6.80487,742
6.8106,729
6.81632,1015
6.82203,855
6.82777,449
6.83348,793
6.8392,854
6.84493,836
6.85065,881
6.85637,633
6.86208,576
6.86782,506
6.87353,709
6.87925,522
6.88498,707
6.8907,773
6.89642,655
6.90215,851
6.90787,716
6.91358,640
6.91932,526
6.92503,534
6.93075,775
6.93648,638
6.9422,792
6.94792,906
6.95365,432
6.95937,568
6.96508,570
6.97082,298
6.97653,531
6.98225,839
6.98797,646
6.9937,592
6.99942,605
7.00513,559
7.01087,721
7.01658,587
7.0223,617
7.02803,394
7.03375,523
7.03947,482
7.0452,619
7.05092,806
7.05663,801
7.06237,493
7.06808,701
7.0738,493
7.07953,700
7.08525,490
7.09097,481
7.0967,719
7.10242,471
7.10813,504
7.11385,453
7.11958,505
7.1253,787
7.13102,553
7.13675,829
7.14247,599
7.14818,428
7.15392,585
7.15963,421
7.16535,822
7.17108,386
7.1768,522
7.18252,710
7.18825,394
7.19397,550
7.19968,517
7.20542,546
7.21113,608
7.21685,526
7.22258,792
7.2283,925
7.23402,501
7.23973,517
7.24547,435
7.25118,813
7.2569,609
7.26263,204
7.26835,259
7.27407,522
7.2798,189
7.28552,644
7.29123,423
7.29697,571
7.30268,455
7.3084,665
7.31413,563
7.31985,728
7.32557,489
7.3313,699
7.33702,821
7.34273,423
7.34847,546
7.35418,474
7.3599,537
7.36562,487
7.37135,843
7.37707,686
7.38278,403
7.38852,518
7.39423,440
7.39995,559
7.40568,769
7.4114,498
7.41712,451
7.42285,691
7.42857,563
7.43428,476
7.44002,561
7.44573,561
7.45145,521
7.45718,618
7.4629,575
7.46862,598
7.47435,676
7.48007,781
7.48578,635
7.4915,546
7.49723,271
7.50295,598
7.50867,652
7.5144,597
7.52012,502
7.52583,562
7.53157,637
7.53728,413
7.543,1118
7.54873,687
7.55445,591
7.56017,678
7.5659,473
7.57162,638
7.57733,670
7.58307,310
7.58878,241
7.5945,512
7.60023,554
7.60595,619
7.61167,610
7.61738,710
7.62312,182
7.62883,538
7.63455,451
7.64028,455
7.646,410
7.65172,735
7.65745,591
7.66317,412
7.66888,681
7.67462,457
7.68033,411
7.68605,473
7.69178,210
7.6975,438
7.70322,396
7.70895,523
7.71467,466
7.72038,539
7.72612,452
7.73183,273
7.73755,334
7.74327,205
7.749,260
7.75472,291
7.76043,405
7.76617,538
7.77188,244
7.7776,360
7.78333,252
7.78905,433
7.79477,461
7.8005,451
7.80622,466
7.81193,205
7.81767,541
7.82338,420
7.8291,472
7.83483,329
7.84055,453
7.84627,399
7.852,507
7.85772,498
7.86343,594
7.86915,527
7.87488,485
7.8806,319
7.88632,276
7.89205,528
7.89777,234
7.90348,385
7.90922,462
7.91493,529
7.92065,495
7.92638,376
7.9321,672
7.93782,660
7.94355,795
7.94927,514
7.95498,553
7.96072,470
7.96643,199
7.97215,535
7.97788,746
7.9836,771
7.98932,194
7.99503,354
8.00077,527
8.00648,484
8.0122,462
8.01793,411
8.02365,0
8.02937,463
8.0351,156
8.04082,281
8.04653,763
8.05227,550
8.05798,610
8.0637,712
8.06943,412
8.07515,272
8.08087,222
8.0866,408
8.09232,650
8.09803,249
8.10377,414
8.10948,405
8.1152,216
8.12092,427
8.12665,812
8.13237,713
8.13808,487
8.14382,544
8.14953,579
8.15525,666
8.16098,525
8.1667,471
8.17242,399
8.17815,393
8.18387,184
8.18958,287
8.19532,556
8.20103,196
8.20675,616
8.21248,643
8.2182,497
8.22392,574
8.22965,506
8.23537,390
8.24108,312
8.2468,212
8.25253,355
8.25825,533
8.26397,484
8.2697,411
8.27542,399
8.28113,344
8.28687,454
8.29258,489
8.2983,463
8.30403,441
8.30975,678
8.31547,504
8.3212,159
8.32692,433
8.33263,275
8.33837,332
8.34408,202
8.3498,398
8.35553,485
8.36125,1200
8.36697,788
8.37268,922
8.37842,627
8.38413,678
8.38985,412
8.39558,480
8.4013,465
8.40702,403
8.41275,756
8.41847,240
8.42418,225
8.42992,267
8.43563,547
8.44135,331
8.44708,532
8.4528,614
8.45852,712
8.46425,692
8.46997,412
8.47568,684
8.48142,309
8.48713,420
8.49285,436
8.49857,230
8.5043,269
8.51002,223
8.51573,340
8.52147,611
8.52718,633
8.5329,529
8.53863,507
8.54435,263
8.55007,718
8.5558,355
8.56152,185
8.56723,419
8.57297,496
8.57868,301
8.5844,286
8.59013,209
8.59585,242
8.60157,400
8.6073,226
8.61302,571
8.61873,486
8.62445,542
8.63018,332
8.6359,216
8.64162,0
8.64735,178
8.65307,211
8.65878,380
8.66452,341
8.67023,391
8.67595,157
8.68168,612
8.6874,273
8.69312,371
8.69885,179
8.70457,370
8.71028,338
8.71602,359
8.72173,150
8.72745,230
8.73318,348
8.7389,194
8.74462,698
8.75033,241
8.75607,639
8.76178,204
8.7675,698
8.77323,445
8.77895,345
8.78467,226
8.7904,202
8.79612,0
8.80183,248
8.80757,796
8.81328,459
8.819,212
8.82473,494
8.83045,416
8.83617,347
8.8419,298
8.84762,331
8.85333,295
8.85907,475
8.86478,390
8.8705,600
8.87622,224
8.88195,331
8.88767,203
8.89338,246
8.89912,199
8.90483,534
8.91055,353
8.91628,244
8.922,688
8.92772,690
8.93345,1236
8.93917,614
8.94488,318
8.95062,438
8.95633,162
8.96205,574
8.96778,357
8.9735,461
8.97922,515
8.98495,0
8.99067,179
8.99638,450
9.0021,415
9.00783,416
9.01355,218
9.01927,428
9.025,407
9.03072,264
9.03643,360
9.04217,538
9.04788,381
9.0536,425
9.05933,600
9.06505,1303
9.07077,2588
9.0765,4141
9.08222,4155
9.08793,4659
9.09367,3480
9.09938,2627
9.1051,1867
9.11083,1086
9.11655,620
9.12227,690
9.12798,583
9.13372,456
9.13943,497
9.14515,233
9.15088,414
9.1566,594
9.16232,154
9.16805,468
9.17377,325
9.17948,354
9.18522,612
9.19093,156
9.19665,520
9.20238,234
9.2081,384
9.21382,464
9.21955,211
9.22527,438
9.23098,219
9.23672,322
9.24243,181
9.24815,382
9.25387,431
9.2596,253
9.26532,423
9.27103,345
9.27677,0
9.28248,403
9.2882,151
9.29393,359
9.29965,362
9.30537,165
9.3111,388
9.31682,390
9.32253,521
9.32827,400
9.33398,344
9.3397,249
9.34543,434
9.35115,384
9.35687,483
9.3626,274
9.36832,431
9.37403,394
9.37975,199
9.38548,408
9.3912,222
9.39692,604
9.40265,440
9.40837,370
9.41408,366
9.41982,562
9.42553,176
9.43125,392
9.43698,419
9.4427,707
9.44842,248
9.45415,278
9.45987,0
9.46558,153
9.47132,457
9.47703,259
9.48275,179
9.48848,405
9.4942,298
9.49992,226
9.50563,174
9.51137,550
9.51708,622
9.5228,473
9.52853,153
9.53425,151
9.53997,0
9.5457,430
9.55142,262
9.55713,222
9.56287,176
9.56858,196
9.5743,194
9.58003,355
9.58575,360
9.59147,234
9.5972,361
9.60292,694
9.60863,412
9.61437,321
9.62008,362
9.6258,193
9.63152,422
9.63725,443
9.64297,196
9.64868,379
9.65442,432
9.66013,271
9.66585,280
9.67158,624
9.6773,267
9.68302,239
9.68875,411
9.69447,362
9.70018,186
9.70592,0
9.71163,0
9.71735,164
9.72308,829
9.7288,1087
9.73452,1587
9.74025,1332
9.74597,1486
9.75168,682
9.7574,251
9.76313,607
9.76885,267
9.77457,369
9.7803,353
9.78602,256
9.79173,222
9.79747,256
9.80318,0
9.8089,412
9.81463,211
9.82035,205
9.82607,443
9.8318,209
9.83752,291
9.84323,189
9.84897,269
9.85468,170
9.8604,381
9.86613,218
9.87185,187
9.87757,0
9.88328,498
9.88902,505
9.89473,203
9.90045,208
9.90618,195
9.9119,180
9.91762,174
9.92335,353
9.92907,327
9.93478,183
9.94052,359
9.94623,209
9.95195,0
9.95768,233
9.9634,293
9.96912,646
9.97485,212
9.98057,375
9.98628,455
9.99202,242
9.99773,457
10.0035,156
10.0092,623
10.0149,332
10.0206,477
10.0263,154
10.0321,310
10.0378,197
10.0435,0
10.0492,386
10.055,177
10.0607,0
10.0664,193
10.0721,0
10.0778,191
10.0836,242
10.0893,183
10.095,179
10.1007,181
10.1065,628
10.1122,0
10.1179,0
10.1236,260
10.1293,187
10.1351,239
10.1408,531
10.1465,494
10.1522,185
10.158,476
10.1637,229
10.1694,0
10.1751,153
10.1808,150
10.1866,193
10.1923,196
10.198,324
10.2037,231
10.2095,211
10.2152,0
10.2209,254
10.2266,372
10.2323,0
10.2381,0
10.2438,0
10.2495,431
10.2552,161
10.2609,155
10.2667,424
10.2724,647
10.2781,636
10.2838,270
10.2896,576
10.2953,476
10.301,463
10.3067,0
10.3124,183
10.3182,0
10.3239,292
10.3296,0
10.3353,0
10.3411,159
10.3468,402
10.3525,156
10.3582,0
10.3639,307
10.3697,235
10.3754,181
10.3811,219
10.3868,544
10.3926,251
10.3983,0
10.404,217
10.4097,171
10.4154,339
10.4212,215
10.4269,156
10.4326,349
10.4383,570
10.4441,432
10.4498,363
10.4555,395
10.4612,171
10.4669,314
10.4727,0
10.4784,0
10.4841,219
10.4898,630
10.4956,194
10.5013,0
10.507,151
10.5127,0
10.5184,0
10.5242,0
10.5299,294
10.5356,171
10.5413,168
10.547,0
10.5528,0
10.5585,201
10.5642,521
10.5699,877
10.5757,969
10.5814,484
10.5871,214
10.5928,170
10.5985,155
10.6043,347
10.61,444
10.6157,339
10.6214,325
10.6272,152
10.6329,174
10.6386,209
10.6443,426
10.65,528
10.6558,352
10.6615,430
10.6672,213
10.6729,154
10.6787,198
10.6844,326
10.6901,0
10.6958,549
10.7015,340
10.7073,205
10.713,178
10.7187,167
10.7244,0
10.7302,163
10.7359,0
10.7416,0
10.7473,162
10.753,399
10.7588,207
10.7645,156
10.7702,0
10.7759,161
10.7816,211
10.7874,241
10.7931,240
10.7988,468
10.8045,0
10.8103,154
10.816,160
10.8217,175
10.8274,337
10.8331,233
10.8389,183
10.8446,1012
10.8503,1675
10.856,2399
10.8618,3877
10.8675,3114
10.8732,3256
10.8789,2108
10.8846,1562
10.8904,1205
10.8961,605
10.9018,741
10.9075,575
10.9133,476
10.919,388
10.9247,730
10.9304,155
10.9361,173
10.9419,506
10.9476,0
10.9533,370
10.959,401
10.9648,577
10.9705,670
10.9762,757
10.9819,483
10.9876,395
10.9934,405
10.9991,337
11.0048,0
11.0105,200
11.0163,171
11.022,0
11.0277,203
11.0334,180
11.0391,0
11.0449,489
11.0506,326
11.0563,0
11.062,0
11.0677,241
11.0735,238
11.0792,412
11.0849,274
11.0906,0
11.0964,0
11.1021,227
11.1078,386
11.1135,201
11.1192,511
11.125,1463
11.1307,3716
11.1364,6126
11.1421,6774
11.1479,6410
11.1536,3590
11.1593,1745
11.165,332
11.1707,225
11.1765,173
11.1822,157
11.1879,0
11.1936,218
11.1994,263
11.2051,0
11.2108,201
11.2165,246
11.2222,224
11.228,388
11.2337,332
11.2394,0
11.2451,0
11.2509,241
11.2566,172
11.2623,368
11.268,0
11.2737,204
11.2795,0
11.2852,168
11.2909,387
11.2966,443
11.3023,408
11.3081,183
11.3138,157
11.3195,0
11.3252,154
11.331,362
11.3367,0
11.3424,252
11.3481,177
11.3538,158
11.3596,0
11.3653,0
11.371,156
11.3767,383
11.3825,225
11.3882,432
11.3939,444
11.3996,217
11.4053,258
11.4111,239
11.4168,360
11.4225,513
11.4282,250
11.434,0
11.4397,720
11.4454,1017
11.4511,543
11.4568,966
11.4626,898
11.4683,573
11.474,216
11.4797,368
11.4855,197
11.4912,392
11.4969,160
11.5026,666
11.5083,234
11.5141,194
11.5198,205
11.5255,169
11.5312,150
11.5369,532
11.5427,170
11.5484,0
11.5541,172
11.5598,0
11.5656,0
11.5713,157
11.577,186
11.5827,244
11.5884,189
11.5942,213
11.5999,176
11.6056,163
11.6113,0
11.6171,0
11.6228,180
11.6285,442
11.6342,188
11.6399,155
11.6457,189
11.6514,155
11.6571,0
11.6628,0
11.6686,151
11.6743,200
11.68,530
11.6857,154
11.6914,0
11.6972,297
11.7029,200
11.7086,231
11.7143,360
11.7201,0
11.7258,0
11.7315,334
11.7372,161
11.7429,0
11.7487,177
11.7544,198
11.7601,353
11.7658,181
11.7716,166
11.7773,216
11.783,181
11.7887,163
11.7944,629
11.8002,158
11.8059,183
11.8116,273
11.8173,159
11.823,0
11.8288,201
11.8345,0
11.8402,189
11.8459,176
11.8517,0
11.8574,225
11.8631,0
11.8688,151
11.8745,493
11.8803,0
11.886,0
11.8917,201
11.8974,193
11.9032,151
11.9089,343
11.9146,167
11.9203,207
11.926,215
11.9318,166
11.9375,0
11.9432,187
11.9489,152
11.9547,0
11.9604,0
11.9661,0
11.9718,0
11.9775,0
11.9833,315
11.989,471
11.9947,178
12.0004,0
12.0062,0
12.0119,368
12.0176,0
12.0233,155
12.029,0
12.0348,181
12.0405,206
12.0462,182
12.0519,169
12.0576,427
12.0634,0
12.0691,0
12.0748,0
12.0805,154
12.0863,169
12.092,0
12.0977,427
12.1034,213
12.1091,151
12.1149,0
12.1206,351
12.1263,0
12.132,218
12.1378,965
12.1435,2334
12.1492,3463
12.1549,3429
12.1606,3054
12.1664,747
12.1721,330
12.1778,510
12.1835,688
12.1893,432
12.195,187
12.2007,342
12.2064,307
12.2121,192
12.2179,0
12.2236,0
12.2293,0
12.235,0
12.2408,0
12.2465,170
12.2522,228
12.2579,178
12.2636,330
12.2694,226
12.2751,195
12.2808,0
12.2865,170
12.2922,0
12.298,0
12.3037,469
12.3094,0
12.3151,322
12.3209,0
12.3266,172
12.3323,0
12.338,173
12.3437,369
12.3495,451
12.3552,185
12.3609,351
12.3666,195
12.3724,499
12.3781,328
12.3838,0
12.3895,168
12.3952,193
12.401,0
12.4067,446
12.4124,361
12.4181,349
12.4239,203
12.4296,172
12.4353,0
12.441,0
12.4467,0
12.4525,231
12.4582,171
12.4639,0
12.4696,0
12.4754,194
12.4811,0
12.4868,0
12.4925,164
12.4982,163
12.504,227
12.5097,195
12.5154,191
12.5211,0
12.5269,0
12.5326,162
12.5383,172
12.544,186
12.5497,0
12.5555,407
12.5612,0
12.5669,0
12.5726,344
12.5783,161
12.5841,158
12.5898,188
12.5955,186
12.6012,184
12.607,333
12.6127,156
12.6184,0
12.6241,0
12.6298,0
12.6356,347
12.6413,0
12.647,0
12.6527,185
12.6585,820
12.6642,1352
12.6699,1115
12.6756,872
12.6813,176
12.6871,0
12.6928,174
12.6985,323
12.7042,331
12.71,620
12.7157,1158
12.7214,951
12.7271,690
12.7328,689
12.7386,402
12.7443,174
12.75,223
12.7557,325
12.7615,193
12.7672,162
12.7729,0
12.7786,154
12.7843,240
12.7901,360
12.7958,163
12.8015,0
12.8072,0
12.8129,194
12.8187,151
12.8244,333
12.8301,0
12.8358,162
12.8416,0
12.8473,163
12.853,150
12.8587,0
12.8644,0
12.8702,177
12.8759,0
12.8816,213
12.8873,0
12.8931,179
12.8988,0
12.9045,198
12.9102,0
12.9159,177
12.9217,0
12.9274,197
12.9331,325
12.9388,227
12.9446,1470
12.9503,3221
12.956,4939
12.9617,5056
12.9674,3630
12.9732,2495
12.9789,589
12.9846,179
12.9903,393
12.9961,233
13.0018,152
13.0075,169
13.0132,0
13.0189,0
13.0247,176
13.0304,191
13.0361,310
13.0418,592
13.0475,1002
13.0533,736
13.059,448
13.0647,427
13.0704,236
13.0762,0
13.0819,192
13.0876,169
13.0933,0
13.099,184
13.1048,240
13.1105,1008
13.1162,1057
13.1219,1568
13.1277,2247
13.1334,1771
13.1391,967
13.1448,789
13.1505,597
13.1563,336
13.162,160
13.1677,454
13.1734,211
13.1792,185
13.1849,374
13.1906,544
13.1963,735
13.202,547
13.2078,1443
13.2135,1610
13.2192,724
13.2249,437
13.2307,176
13.2364,246
13.2421,572
13.2478,326
13.2535,385
13.2593,161
13.265,241
13.2707,239
13.2764,408
13.2822,159
13.2879,0
13.2936,165
13.2993,0
13.305,228
13.3108,223
13.3165,181
13.3222,0
13.3279,156
13.3336,186
13.3394,221
13.3451,0
13.3508,693
13.3565,0
13.3623,398
13.368,163
13.3737,0
13.3794,295
13.3851,362
13.3909,170
13.3966,177
13.4023,196
13.408,0
13.4138,224
13.4195,410
13.4252,617
13.4309,0
13.4366,326
13.4424,243
13.4481,173
13.4538,173
13.4595,355
13.4653,172
13.471,170
13.4767,184
13.4824,206
13.4881,0
13.4939,358
13.4996,335
13.5053,0
13.511,0
13.5168,0
13.5225,519
13.5282,0
13.5339,0
13.5396,178
13.5454,0
13.5511,0
13.5568,431
13.5625,349
13.5682,159
13.574,214
13.5797,202
13.5854,0
13.5911,0
13.5969,0
13.6026,0
13.6083,457
13.614,0
13.6197,419
13.6255,378
13.6312,0
13.6369,174
13.6426,236
13.6484,437
13.6541,466
13.6598,319
13.6655,166
13.6712,204
13.677,175
13.6827,0
13.6884,202
13.6941,467
13.6999,246
13.7056,0
13.7113,0
13.717,216
13.7227,428
13.7285,326
13.7342,0
13.7399,157
13.7456,0
13.7514,389
13.7571,0
13.7628,247
13.7685,0
13.7742,363
13.78,203
13.7857,202
13.7914,217
13.7971,199
13.8029,276
13.8086,0
13.8143,466
13.82,218
13.8257,154
13.8315,0
13.8372,0
13.8429,371
13.8486,234
13.8543,255
13.8601,0
13.8658,355
13.8715,193
13.8772,234
13.883,157
13.8887,0
13.8944,0
13.9001,0
13.9058,231
13.9116,350
13.9173,0
13.923,0
13.9287,0
13.9345,0
13.9402,0
13.9459,0
13.9516,321
13.9573,168
13.9631,0
13.9688,318
13.9745,246
13.9802,192
13.986,161
13.9917,0
13.9974,0
14.0031,203
14.0088,0
14.0146,0
14.0203,213
14.026,161
14.0317,395
14.0375,164
14.0432,401
14.0489,0
14.0546,0
14.0603,0
14.0661,209
14.0718,192
14.0775,167
14.0832,0
14.0889,182
14.0947,0
14.1004,206
14.1061,154
14.1118,290
14.1176,151
14.1233,189
14.129,0
14.1347,341
14.1404,156
14.1462,154
14.1519,379
14.1576,0
14.1633,260
14.1691,159
14.1748,362
14.1805,0
14.1862,208
14.1919,0
14.1977,0
14.2034,0
14.2091,0
14.2148,359
14.2206,428
14.2263,187
14.232,0
14.2377,504
14.2434,266
14.2492,222
14.2549,390
14.2606,150
14.2663,338
14.2721,0
14.2778,0
14.2835,0
14.2892,0
14.2949,0
14.3007,172
14.3064,177
14.3121,421
14.3178,218
14.3235,422
14.3293,154
14.335,0
14.3407,156
14.3464,0
14.3522,151
14.3579,0
14.3636,224
14.3693,340
14.375,182
14.3808,183
14.3865,150
14.3922,156
14.3979,197
14.4037,156
14.4094,196
14.4151,0
14.4208,196
14.4265,152
14.4323,178
14.438,266
14.4437,0
14.4494,0
14.4552,0
14.4609,478
14.4666,352
14.4723,237
14.478,153
14.4838,432
14.4895,395
14.4952,155
14.5009,181
14.5067,703
14.5124,1957
14.5181,2643
14.5238,3174
14.5295,2051
14.5353,1362
14.541,447
14.5467,440
14.5524,196
14.5582,0
14.5639,159
14.5696,155
14.5753,160
14.581,188
14.5868,389
14.5925,164
14.5982,281
14.6039,318
14.6096,417
14.6154,181
14.6211,579
14.6268,151
14.6325,0
14.6383,0
14.644,0
14.6497,195
14.6554,0
14.6611,0
14.6669,180
14.6726,369
14.6783,213
14.684,178
14.6898,161
14.6955,172
14.7012,219
14.7069,333
14.7126,393
14.7184,170
14.7241,242
14.7298,151
14.7355,439
14.7413,200
14.747,0
14.7527,376
14.7584,0
14.7641,205
14.7699,359
14.7756,690
14.7813,366
14.787,526
14.7928,160
14.7985,398
14.8042,367
14.8099,224
14.8156,450
14.8214,451
14.8271,424
14.8328,0
14.8385,330
14.8442,363
14.85,260
14.8557,434
14.8614,526
14.8671,324
14.8729,188
14.8786,452
14.8843,241
14.89,222
14.8957,0
14.9015,290
14.9072,202
14.9129,281
14.9186,200
14.9244,211
14.9301,0
14.9358,186
14.9415,585
14.9472,275
14.953,216
14.9587,196
14.9644,283
14.9701,211
14.9759,174
14.9816,409
14.9873,187
14.993,270
14.9987,0
15.0045,179
15.0102,203
15.0159,267
15.0216,201
15.0274,178
15.0331,369
15.0388,0
15.0445,159
15.0502,0
15.056,205
15.0617,0
15.0674,237
15.0731,542
15.0788,0
15.0846,446
15.0903,0
15.096,159
15.1017,211
15.1075,0
15.1132,0
15.1189,169
15.1246,243
15.1303,233
15.1361,202
15.1418,289
15.1475,160
15.1532,194
15.159,232
15.1647,413
15.1704,183
15.1761,223
15.1818,353
15.1876,300
15.1933,0
15.199,461
15.2047,360
15.2105,355
15.2162,213
15.2219,294
15.2276,204
15.2333,205
15.2391,328
15.2448,0
15.2505,203
15.2562,334
15.262,334
15.2677,306
15.2734,574
15.2791,189
15.2848,417
15.2906,389
15.2963,460
15.302,243
15.3077,0
15.3135,161
15.3192,426
15.3249,191
15.3306,156
15.3363,0
15.3421,514
15.3478,231
15.3535,0
15.3592,405
15.3649,417
15.3707,369
15.3764,329
15.3821,468
15.3878,493
15.3936,0
15.3993,166
15.405,0
15.4107,0
15.4164,0
15.4222,157
15.4279,338
15.4336,0
15.4393,0
15.4451,0
15.4508,157
15.4565,221
15.4622,0
15.4679,435
15.4737,435
15.4794,405
15.4851,156
15.4908,313
15.4966,365
15.5023,355
15.508,371
15.5137,226
15.5194,0
15.5252,163
15.5309,351
15.5366,435
15.5423,250
15.5481,0
15.5538,158
15.5595,445
15.5652,325
15.5709,415
15.5767,282
15.5824,194
15.5881,344
15.5938,411
15.5995,200
15.6053,227
15.611,221
15.6167,201
15.6224,490
15.6282,309
15.6339,243
15.6396,425
15.6453,518
15.651,505
15.6568,629
15.6625,0
15.6682,361
15.6739,182
15.6797,479
15.6854,0
15.6911,543
15.6968,425
15.7025,404
15.7083,408
15.714,474
15.7197,212
15.7254,259
15.7312,481
15.7369,225
15.7426,171
15.7483,0
15.754,253
15.7598,222
15.7655,398
15.7712,199
15.7769,265
15.7827,401
15.7884,233
15.7941,476
15.7998,0
15.8055,385
15.8113,188
15.817,227
15.8227,0
15.8284,442
15.8341,176
15.8399,237
15.8456,174
15.8513,415
15.857,298
15.8628,235
15.8685,355
15.8742,520
15.8799,197
15.8856,400
15.8914,0
15.8971,442
15.9028,598
15.9085,667
15.9143,1062
15.92,1271
15.9257,1879
15.9314,1192
15.9371,851
15.9429,906
15.9486,756
15.9543,630
15.96,172
15.9658,420
15.9715,615
15.9772,353
15.9829,536
15.9886,546
15.9944,503
16.0001,370
16.0058,535
16.0115,632
16.0173,605
16.023,249
16.0287,213
16.0344,339
16.0401,494
16.0459,199
16.0516,392
16.0573,213
16.063,472
16.0688,532
16.0745,480
16.0802,320
16.0859,336
16.0916,338
16.0973,216
16.1031,463
16.1088,332
16.1145,567
16.1202,283
16.126,524
16.1317,508
16.1374,354
16.1431,379
16.1488,397
16.1546,429
16.1603,744
16.166,154
16.1717,673
16.1775,598
16.1832,153
16.1889,858
16.1946,444
16.2004,162
16.2061,354
16.2118,340
16.2175,504
16.2232,502
16.229,595
16.2347,202
16.2404,651
16.2461,552
16.2519,395
16.2576,352
16.2633,525
16.269,387
16.2747,246
16.2804,568
16.2862,377
16.2919,216
16.2976,245
16.3033,171
16.3091,161
16.3148,585
16.3205,444
16.3262,635
16.3319,553
16.3377,512
16.3434,228
16.3491,497
16.3548,321
16.3606,555
16.3663,542
16.372,365
16.3777,531
16.3835,575
16.3892,696
16.3949,437
16.4006,546
16.4063,461
16.4121,725
16.4178,676
16.4235,353
16.4292,817
16.435,405
16.4407,202
16.4464,781
16.4521,360
16.4578,445
16.4636,231
16.4693,195
16.475,724
16.4807,730
16.4865,591
16.4922,800
16.4979,723
16.5036,343
16.5093,402
16.515,585
16.5208,663
16.5265,476
16.5322,416
16.5379,330
16.5437,687
16.5494,617
16.5551,517
16.5608,490
16.5665,268
16.5723,861
16.578,215
16.5837,410
16.5894,493
16.5952,738
16.6009,769
16.6066,888
16.6123,831
16.6181,301
16.6238,560
16.6295,375
16.6352,520
16.6409,357
16.6467,653
16.6524,966
16.6581,421
16.6638,668
16.6696,792
16.6753,719
16.681,779
16.6867,567
16.6924,696
16.6982,429
16.7039,736
16.7096,547
16.7153,520
16.7211,703
16.7268,553
16.7325,524
16.7382,758
16.7439,407
16.7496,477
16.7554,523
16.7611,473
16.7668,525
16.7725,761
16.7783,625
16.784,642
16.7897,484
16.7954,920
16.8012,469
16.8069,501
16.8126,540
16.8183,325
16.8241,517
16.8298,740
16.8355,445
16.8412,787
16.8469,877
16.8527,566
16.8584,554
16.8641,250
16.8698,629
16.8755,788
16.8813,584
16.887,728
16.8927,432
16.8984,846
16.9042,492
16.9099,525
16.9156,619
16.9213,590
16.927,837
16.9328,667
16.9385,598
16.9442,430
16.9499,702
16.9556,918
16.9614,851
16.9671,315
16.9728,634
16.9785,544
16.9842,815
16.99,666
16.9957,828
17.0014,773
17.0071,400
17.0129,1067
17.0186,769
17.0243,483
17.03,840
17.0358,260
17.0415,475
17.0472,670
17.0529,313
17.0587,619
17.0644,734
17.0701,832
17.0758,808
17.0815,623
17.0873,722
17.093,726
17.0987,826
17.1044,515
17.1101,615
17.1159,688
17.1216,679
17.1273,468
17.133,693
17.1388,737
17.1445,984
17.1502,467
17.1559,733
17.1616,762
17.1674,635
17.1731,831
17.1788,901
17.1845,760
17.1902,652
17.196,1269
17.2017,2045
17.2074,1640
17.2131,1426
17.2189,1099
17.2246,1323
17.2303,782
17.236,1264
17.2418,769
17.2475,765
17.2532,789
17.2589,824
17.2646,1124
17.2704,940
17.2761,864
17.2818,998
17.2875,939
17.2933,758
17.299,1171
17.3047,483
17.3104,994
17.3161,851
17.3219,732
17.3276,599
17.3333,607
17.339,1148
17.3447,1052
17.3505,859
17.3562,1181
17.3619,1029
17.3676,691
17.3733,1035
17.3791,870
17.3848,718
17.3905,629
17.3962,877
17.402,1147
17.4077,1117
17.4134,1128
17.4191,1311
17.4248,950
17.4306,753
17.4363,960
17.442,897
17.4477,1269
17.4535,669
17.4592,847
17.4649,1131
17.4706,936
17.4764,886
17.4821,970
17.4878,907
17.4935,310
17.4992,704
17.505,1050
17.5107,574
17.5164,857
17.5221,981
17.5279,1143
17.5336,1370
17.5393,931
17.545,1211
17.5507,1459
17.5565,945
17.5622,960
17.5679,819
17.5736,1223
17.5794,1208
17.5851,540
17.5908,769
17.5965,1147
17.6022,1220
17.608,1023
17.6137,1190
17.6194,866
17.6251,1300
17.6308,1195
17.6366,1220
17.6423,804
17.648,935
17.6537,1041
17.6595,821
17.6652,1203
17.6709,976
17.6766,837
17.6823,1188
17.6881,868
17.6938,804
17.6995,1016
17.7052,1102
17.711,1001
17.7167,1138
17.7224,989
17.7281,1671
17.7338,1067
17.7396,639
17.7453,1356
17.751,949
17.7567,972
17.7625,1179
17.7682,1668
17.7739,879
17.7796,1236
17.7853,995
17.7911,1012
17.7968,1164
17.8025,1289
17.8082,1050
17.814,1244
17.8197,1070
17.8254,980
17.8311,1227
17.8368,992
17.8425,891
17.8483,1163
17.854,1142
17.8597,1265
17.8654,931
17.8712,1432
17.8769,1558
17.8826,1310
17.8883,1266
17.8941,1305
17.8998,1190
17.9055,1356
17.9112,1591
17.9169,2434
17.9227,2766
17.9284,2348
17.9341,1609
17.9398,872
17.9456,1859
17.9513,1296
17.957,1504
17.9627,1138
17.9684,1336
17.9742,1172
17.9799,1612
17.9856,1447
17.9913,1059
17.9971,1221
18.0028,1246
18.0085,1209
18.0142,1408
18.0199,1524
18.0257,1197
18.0314,1523
18.0371,1506
18.0428,1166
18.0486,1111
18.0543,1658
18.06,1840
18.0657,1453
18.0714,1176
18.0772,1415
18.0829,1226
18.0886,1684
18.0943,1742
18.1001,1835
18.1058,1617
18.1115,1402
18.1172,1106
18.1229,1311
18.1287,1473
18.1344,1287
18.1401,1154
18.1458,1082
18.1515,1617
18.1573,1207
18.163,1989
18.1687,1597
18.1744,1275
18.1802,1392
18.1859,1230
18.1916,1994
18.1973,1747
18.203,1290
18.2088,1881
18.2145,1442
18.2202,1682
18.2259,1714
18.2317,1621
18.2374,1522
18.2431,1865
18.2488,1354
18.2545,1421
18.2602,1682
18.266,1584
18.2717,1533
18.2774,1310
18.2831,1004
18.2889,1798
18.2946,1847
18.3003,1260
18.306,1451
18.3118,1350
18.3175,1711
18.3232,925
18.3289,1666
18.3347,1215
18.3404,1864
18.3461,1400
18.3518,1709
18.3575,1755
18.3633,3735
18.369,3213
18.3747,2845
18.3804,2269
18.3861,1859
18.3919,2002
18.3976,1697
18.4033,1698
18.409,1610
18.4148,1843
18.4205,1922
18.4262,1434
18.4319,1950
18.4376,1840
18.4434,1659
18.4491,1371
18.4548,1459
18.4605,1480
18.4663,1964
18.472,2345
18.4777,1765
18.4834,2301
18.4891,2112
18.4949,1986
18.5006,2369
18.5063,1893
18.512,2192
18.5177,2313
18.5235,1927
18.5292,2132
18.5349,1823
18.5406,1709
18.5464,1752
18.5521,1808
18.5578,1837
18.5635,2045
18.5693,2036
18.575,2365
18.5807,2100
18.5864,1998
18.5921,1998
18.5979,1959
18.6036,1839
18.6093,1766
18.615,2708
18.6207,2481
18.6265,1868
18.6322,2168
18.6379,2488
18.6436,2100
18.6494,2401
18.6551,1737
18.6608,1991
18.6665,1602
18.6722,2146
18.678,1536
18.6837,1634
18.6894,1862
18.6951,1957
18.7009,2485
18.7066,1700
18.7123,2069
18.718,2659
18.7237,2848
18.7295,2860
18.7352,7502
18.7409,13136
18.7466,18601
18.7524,18919
18.7581,15330
18.7638,9545
18.7695,5983
18.7752,3619
18.781,3204
18.7867,2558
18.7924,2962
18.7981,2781
18.8039,2555
18.8096,1852
18.8153,2112
18.821,2851
18.8267,2373
18.8325,2353
18.8382,3056
18.8439,2885
18.8496,3045
18.8554,3213
18.8611,2583
18.8668,2632
18.8725,3065
18.8782,2493
18.884,3052
18.8897,2905
18.8954,3024
18.9011,3396
18.9068,3077
18.9126,3445
18.9183,2996
18.924,2886
18.9297,3517
18.9354,2235
18.9412,2570
18.9469,2558
18.9526,3462
18.9583,2887
18.9641,2999
18.9698,2642
18.9755,3052
18.9812,2678
18.987,3235
18.9927,3492
18.9984,3240
19.0041,3439
19.0098,3314
19.0156,2586
19.0213,2988
19.027,2879
19.0327,4250
19.0385,3097
19.0442,3008
19.0499,3052
19.0556,2715
19.0613,3023
19.0671,3787
19.0728,3368
19.0785,3972
19.0842,3393
19.09,3775
19.0957,3406
19.1014,3555
19.1071,2494
19.1128,2966
19.1186,2812
19.1243,3625
19.13,2963
19.1357,3252
19.1414,3259
19.1472,2734
19.1529,3968
19.1586,3589
19.1643,3029
19.1701,3349
19.1758,2817
19.1815,3487
19.1872,3542
19.1929,3514
19.1987,3335
19.2044,3018
19.2101,3588
19.2158,3761
19.2216,3312
19.2273,3370
19.233,3902
19.2387,3712
19.2444,2903
19.2502,3612
19.2559,3896
19.2616,4543
19.2673,3644
19.2731,3181
19.2788,3553
19.2845,3618
19.2902,3220
19.2959,3875
19.3017,3687
19.3074,3957
19.3131,3578
19.3188,3326
19.3246,4480
19.3303,3746
19.336,4086
19.3417,3612
19.3474,3749
19.3531,3433
19.3589,4708
19.3646,4169
19.3703,4403
19.376,4332
19.3818,3673
19.3875,4110
19.3932,3612
19.3989,3651
19.4047,3963
19.4104,3412
19.4161,3538
19.4218,4334
19.4275,4749
19.4333,4995
19.439,5663
19.4447,5294
19.4504,4532
19.4562,4204
19.4619,4725
19.4676,4936
19.4733,4054
19.479,4555
19.4848,4505
19.4905,3818
19.4962,4602
19.5019,4508
19.5077,4745
19.5134,4111
19.5191,4052
19.5248,4617
19.5305,3849
19.5363,4446
19.542,4142
19.5477,4457
19.5534,4696
19.5592,4599
19.5649,4642
19.5706,4495
19.5763,3761
19.582,3519
19.5878,5282
19.5935,4776
19.5992,4954
19.6049,4383
19.6107,4329
19.6164,4053
19.6221,5578
19.6278,4821
19.6335,4637
19.6393,4913
19.645,4812
19.6507,5102
19.6564,4786
19.6621,4552
19.6679,4836
19.6736,4372
19.6793,4501
19.685,4726
19.6908,4548
19.6965,4649
19.7022,4966
19.7079,5198
19.7136,4441
19.7194,4181
19.7251,4928
19.7308,4524
19.7365,6349
19.7423,5044
19.748,4698
19.7537,5127
19.7594,5024
19.7651,5015
19.7708,5423
19.7766,5367
19.7823,4680
19.788,4471
19.7937,4987
19.7995,4386
19.8052,4365
19.8109,5064
19.8166,5493
19.8224,5127
19.8281,6039
19.8338,6377
19.8395,5923
19.8453,5778
19.851,5322
19.8567,5971
19.8624,5047
19.8681,5507
19.8739,5273
19.8796,5838
19.8853,6019
19.891,6093
19.8967,4993
19.9025,5366
19.9082,6117
19.9139,6033
19.9196,5460
19.9254,6055
19.9311,5650
19.9368,5939
19.9425,5881
19.9482,5602
19.954,5345
19.9597,5933
19.9654,5633
19.9711,5051
19.9769,5448
19.9826,7081
19.9883,5627
19.994,5729
19.9997,7204
20.0055,6389
20.0112,6306
20.0169,6377
20.0226,5623
20.0284,5948
20.0341,5831
20.0398,6308
20.0455,5884
20.0512,6811
20.057,6461
20.0627,6133
20.0684,6215
20.0741,6502
20.0799,6122
20.0856,6256
20.0913,6589
20.097,7131
20.1027,6386
20.1085,6685
20.1142,6093
20.1199,6459
20.1256,6619
20.1313,6315
20.1371,6929
20.1428,6552
20.1485,7485
20.1542,6455
20.16,7352
20.1657,7000
20.1714,7013
20.1771,7453
20.1828,6868
20.1886,6641
20.1943,7186
20.2,7724
20.2057,6827
20.2114,8293
20.2172,7042
20.2229,7240
20.2286,7552
20.2343,7152
20.2401,7512
20.2458,7926
20.2515,7425
20.2572,6908
20.263,7027
20.2687,6435
20.2744,6439
20.2801,6464
20.2858,6648
20.2916,6832
20.2973,6820
20.303,8394
20.3087,8639
20.3145,8009
20.3202,8327
20.3259,7861
20.3316,7525
20.3373,7373
20.3431,7408
20.3488,7798
20.3545,7404
20.3602,7850
20.366,7606
20.3717,7866
20.3774,8175
20.3831,8652
20.3888,7843
20.3946,7926
20.4003,7555
20.406,9063
20.4117,7846
20.4174,8190
20.4232,8073
20.4289,9489
20.4346,8019
20.4403,9569
20.4461,9689
20.4518,8857
20.4575,9259
20.4632,8825
20.4689,8820
20.4747,7815
20.4804,8548
20.4861,8696
20.4918,9137
20.4976,8474
20.5033,8395
20.509,9241
20.5147,8571
20.5204,8392
20.5262,8401
20.5319,8596
20.5376,8497
20.5433,9204
20.5491,9520
20.5548,8988
20.5605,8634
20.5662,8931
20.5719,9021
20.5777,8613
20.5834,8465
20.5891,9630
20.5948,8505
20.6006,9446
20.6063,10103
20.612,9020
20.6177,9674
20.6234,9978
20.6292,10176
20.6349,9583
20.6406,8618
20.6463,8928
20.652,8549
20.6578,9473
20.6635,10477
20.6692,8509
20.6749,10580
20.6807,9660
20.6864,10227
20.6921,9400
20.6978,10090
20.7035,10318
20.7093,9721
20.715,10574
20.7207,10662
20.7264,9582
20.7322,10425
20.7379,10697
20.7436,10703
20.7493,10725
20.755,11505
20.7608,10377
20.7665,10258
20.7722,10182
20.7779,9429
20.7837,10612
20.7894,10505
20.7951,9967
20.8008,12195
20.8065,10900
20.8123,10873
20.818,10191
20.8237,11540
20.8294,11172
20.8352,10894
20.8409,10800
20.8466,11540
20.8523,11710
20.858,12213
20.8638,11210
20.8695,10583
20.8752,11268
20.8809,10778
20.8866,11417
20.8924,10919
20.8981,10283
20.9038,12409
20.9095,10676
20.9153,11280
20.921,12005
20.9267,12075
20.9324,11728
20.9381,11577
20.9439,11961
20.9496,11542
20.9553,12000
20.961,12641
20.9668,13502
20.9725,11254
20.9782,12262
20.9839,12586
20.9896,12716
20.9954,12298
21.0011,12611
21.0068,12686
21.0125,11683
21.0183,12342
21.024,14127
21.0297,12711
21.0354,13927
21.0411,12840
21.0469,11922
21.0526,12035
21.0583,13028
21.064,12269
21.0698,12930
21.0755,12634
21.0812,13817
21.0869,13584
21.0926,12533
21.0984,13293
21.1041,14221
21.1098,13607
21.1155,12554
21.1213,13571
21.127,14403
21.1327,13423
21.1384,13004
21.1441,13671
21.1499,13644
21.1556,14165
21.1613,13907
21.167,13445
21.1727,13990
21.1785,14727
21.1842,13229
21.1899,15151
21.1956,14277
21.2014,13320
21.2071,14276
21.2128,15899
21.2185,13793
21.2242,13957
21.23,14803
21.2357,15076
21.2414,15954
21.2471,14085
21.2529,14375
21.2586,14692
21.2643,15681
21.27,14504
21.2757,15506
21.2815,14887
21.2872,16645
21.2929,15070
21.2986,15309
21.3043,15771
21.3101,14883
21.3158,16408
21.3215,14880
21.3272,14222
21.333,14622
21.3387,15314
21.3444,15614
21.3501,15482
21.3559,15661
21.3616,16514
21.3673,16435
21.373,15306
21.3787,16256
21.3845,16442
21.3902,15716
21.3959,16271
21.4016,15676
21.4073,14829
21.4131,15575
21.4188,16226
21.4245,17119
21.4302,15602
21.436,16851
21.4417,16966
21.4474,15869
21.4531,16240
21.4588,17039
21.4646,16557
21.4703,16476
21.476,17709
21.4817,17466
21.4875,18035
21.4932,16642
21.4989,17614
21.5046,17635
21.5103,18947
21.5161,16737
21.5218,17189
21.5275,17725
21.5332,16691
21.539,18865
21.5447,17748
21.5504,17302
21.5561,18483
21.5618,18062
21.5676,17504
21.5733,20628
21.579,20277
21.5847,18793
21.5905,19494
21.5962,17877
21.6019,17789
21.6076,18384
21.6133,18953
21.6191,18333
21.6248,19145
21.6305,18907
21.6362,18176
21.642,19063
21.6477,19163
21.6534,19168
21.6591,18668
21.6648,18636
21.6706,20261
21.6763,19938
21.682,19376
21.6877,19972
21.6934,19971
21.6992,20492
21.7049,19479
21.7106,20085
21.7163,21233
21.722,20089
21.7278,20793
21.7335,20341
21.7392,20808
21.7449,21428
21.7507,20825
21.7564,19555
21.7621,21948
21.7678,22369
21.7736,20671
21.7793,20286
21.785,20329
21.7907,20816
21.7964,22578
21.8022,21323
21.8079,21911
21.8136,22642
21.8193,21915
21.8251,20741
21.8308,22506
21.8365,21813
21.8422,21578
21.8479,22677
21.8537,22405
21.8594,22711
21.8651,22200
21.8708,22381
21.8766,22697
21.8823,21299
21.888,23258
21.8937,23541
21.8994,22233
21.9052,23535
21.9109,24811
21.9166,23224
21.9223,22445
21.928,23397
21.9338,22587
21.9395,23502
21.9452,22689
21.9509,23974
21.9567,23664
21.9624,23805
21.9681,25097
21.9738,23349
21.9795,23998
21.9853,24359
21.991,23647
21.9967,24460
22.0024,22745
22.0082,25351
22.0139,24509
22.0196,25054
22.0253,24929
22.031,24280
22.0368,25200
22.0425,26680
22.0482,25214
22.0539,24557
22.0597,24666
22.0654,24876
22.0711,26833
22.0768,24756
22.0825,25414
22.0883,25567
22.094,25210
22.0997,24818
22.1054,26581
22.1112,26263
22.1169,27256
22.1226,27437
22.1283,26945
22.134,26080
22.1397,24877
22.1455,26294
22.1512,25405
22.1569,26543
22.1626,26930
22.1684,28357
22.1741,26927
22.1798,25626
22.1855,25175
22.1913,27200
22.197,27950
22.2027,25239
22.2084,27205
22.2141,28407
22.2199,26350
22.2256,27075
22.2313,26181
22.237,26964
22.2428,27571
22.2485,28447
22.2542,28548
22.2599,28366
22.2656,28908
22.2714,29300
22.2771,29575
22.2828,28530
22.2885,30083
22.2943,28060
22.3,27674
22.3057,29779
22.3114,29607
22.3171,29772
22.3229,29243
22.3286,27763
22.3343,28836
22.34,29506
22.3458,29590
22.3515,29406
22.3572,29404
22.3629,27931
22.3686,31207
22.3744,29683
22.3801,29529
22.3858,30514
22.3915,29280
22.3973,30933
22.403,30394
22.4087,31238
22.4144,31103
22.4201,31628
22.4259,30158
22.4316,30629
22.4373,31399
22.443,31114
22.4487,32722
22.4545,32013
22.4602,33013
22.4659,31200
22.4716,31982
22.4774,30009
22.4831,31486
22.4888,31568
22.4945,31654
22.5002,32900
22.506,32324
22.5117,32138
22.5174,34590
22.5231,33610
22.5289,32551
22.5346,33443
22.5403,32646
22.546,33860
22.5517,33563
22.5574,33570
22.5632,33597
22.5689,31854
22.5746,34662
22.5804,32794
22.5861,35691
22.5918,32490
22.5975,32661
22.6032,34959
22.609,33040
22.6147,32779
22.6204,34939
22.6261,32860
22.6319,34896
22.6376,34798
22.6433,33560
22.649,35855
22.6547,35119
22.6605,34885
22.6662,35365
22.6719,34699
22.6776,36185
22.6833,34364
22.6891,35256
22.6948,36955
22.7005,33520
22.7062,36604
22.712,33424
22.7177,35696
22.7234,37279
22.7291,34683
22.7348,34890
22.7406,35844
22.7463,35766
22.752,36753
22.7577,35558
22.7635,34710
22.7692,36433
22.7749,35989
22.7806,37656
22.7863,37284
22.7921,36252
22.7978,36516
22.8035,36298
22.8092,35645
22.815,38302
22.8207,37720
22.8264,37300
22.8321,37330
22.8378,38028
22.8436,37352
22.8493,39519
22.855,36951
22.8607,37066
22.8665,37344
22.8722,37516
22.8779,38407
22.8836,37204
22.8893,37968
22.8951,37038
22.9008,37994
22.9065,38940
22.9122,40100
22.9179,38224
22.9237,37983
22.9294,38092
22.9351,38371
22.9408,38918
22.9466,40327
22.9523,38447
22.958,39685
22.9637,40660
22.9694,38878
22.9752,39001
22.9809,38282
22.9866,41866
22.9923,38332
22.9981,38968
23.0038,41380
23.0095,39696
23.0152,41264
23.0209,42762
23.0267,42672
23.0324,41227
23.0381,41568
23.0438,40919
23.0496,41139
23.0553,40362
23.061,43781
23.0667,40719
23.0724,42871
23.0782,40661
23.0839,39849
23.0896,42949
23.0953,42221
23.1011,41877
23.1068,41892
23.1125,42170
23.1182,40041
23.1239,41698
23.1297,42154
23.1354,42796
23.1411,41838
23.1468,43359
23.1526,43076
23.1583,43284
23.164,44638
23.1697,40005
23.1754,43264
23.1812,43678
23.1869,43916
23.1926,41805
23.1983,42781
23.204,45720
23.2098,44941
23.2155,43647
23.2212,42717
23.2269,43712
23.2327,44725
23.2384,43620
23.2441,44138
23.2498,43920
23.2555,43708
23.2613,44199
23.267,45959
23.2727,43010
23.2784,43710
23.2842,44870
23.2899,43265
23.2956,44807
23.3013,44208
23.307,43254
23.3128,45910
23.3185,45234
23.3242,45041
23.3299,43565
23.3357,44229
23.3414,46547
23.3471,43745
23.3528,43192
23.3585,47330
23.3643,45264
23.37,46273
23.3757,47979
23.3814,45209
23.3872,46992
23.3929,45276
23.3986,45784
23.4043,44790
23.41,46739
23.4158,44313
23.4215,47230
23.4272,45859
23.4329,45398
23.4386,46785
23.4444,47232
23.4501,44518
23.4558,47550
23.4615,45850
23.4673,46285
23.473,46737
23.4787,46414
23.4844,47540
23.4901,45695
23.4959,46861
23.5016,45015
23.5073,47157
23.513,48663
23.5188,46318
23.5245,47543
23.5302,47309
23.5359,47940
23.5416,47117
23.5474,44892
23.5531,46170
23.5588,47496
23.5645,48114
23.5703,45786
23.576,47984
23.5817,48921
23.5874,48654
23.5931,47375
23.5989,48618
23.6046,47403
23.6103,49531
23.616,47820
23.6218,48686
23.6275,49006
23.6332,49274
23.6389,49349
23.6446,47428
23.6504,50245
23.6561,48639
23.6618,49574
23.6675,49331
23.6732,49727
23.679,46766
23.6847,50086
23.6904,49232
23.6961,51456
23.7019,48844
23.7076,49066
23.7133,49726
23.719,48973
23.7247,47625
23.7305,49788
23.7362,46839
23.7419,48520
23.7476,50324
23.7534,48485
23.7591,49478
23.7648,49296
23.7705,47792
23.7762,50640
23.782,49806
23.7877,49463
23.7934,49271
23.7991,49923
23.8049,51602
23.8106,48144
23.8163,47377
23.822,49034
23.8277,48541
23.8335,48184
23.8392,49276
23.8449,46560
23.8506,50535
23.8564,47720
23.8621,47354
23.8678,48483
23.8735,48408
23.8792,48791
23.885,49505
23.8907,49507
23.8964,47660
23.9021,49444
23.9079,46592
23.9136,50175
23.9193,50613
23.925,47826
23.9307,48197
23.9365,48225
23.9422,49569
23.9479,49791
23.9536,49107
23.9593,49477
23.9651,48535
23.9708,50503
23.9765,50772
23.9822,50335
23.988,51382
23.9937,50749
23.9994,51745
24.0051,49632
24.0108,48178
24.0166,50113
24.0223,49722
24.028,50471
24.0337,49518
24.0395,47988
24.0452,48934
24.0509,49737
24.0566,49486
24.0623,49161
24.068,48868
24.0738,50273
24.0795,48690
24.0852,47652
24.0909,50442
24.0967,48787
24.1024,49128
24.1081,50990
24.1138,46842
24.1196,48123
24.1253,50206
24.131,47572
24.1367,49364
24.1425,48382
24.1482,49039
24.1539,50940
24.1596,50848
24.1653,50550
24.1711,48746
24.1768,47086
24.1825,47729
24.1882,51378
24.1939,49321
24.1997,50215
24.2054,49053
24.2111,49136
24.2168,49872
24.2226,49753
24.2283,51348
24.234,48618
24.2397,51418
24.2454,48502
24.2512,49719
24.2569,48472
24.2626,51211
24.2683,50181
24.2741,50324
24.2798,51429
24.2855,50755
24.2912,50309
24.2969,48224
24.3027,49102
24.3084,49339
24.3141,48026
24.3198,49113
24.3256,48677
24.3313,48869
24.337,48845
24.3427,46668
24.3484,50984
24.3542,48592
24.3599,48297
24.3656,50285
24.3713,49768
24.3771,50009
24.3828,49964
24.3885,50277
24.3942,48177
24.3999,51670
24.4057,48375
24.4114,50822
24.4171,49428
24.4228,48820
24.4285,50103
24.4343,48518
24.44,49473
24.4457,48104
24.4514,49969
24.4572,51629
24.4629,48746
24.4686,51211
24.4743,50004
24.48,46925
24.4858,48349
24.4915,50240
24.4972,47332
24.5029,47722
24.5087,47447
24.5144,50528
24.5201,50048
24.5258,49875
24.5315,46882
24.5373,50612
24.543,48913
24.5487,52113
24.5544,50454
24.5602,48965
24.5659,50519
24.5716,50657
24.5773,49251
24.583,49667
24.5888,49540
24.5945,49313
24.6002,51321
24.6059,49421
24.6117,47951
24.6174,49932
24.6231,48984
24.6288,48437
24.6345,48124
24.6403,49812
24.646,47295
24.6517,51575
24.6574,48192
24.6632,48547
24.6689,48106
24.6746,51683
24.6803,49184
24.686,48739
24.6918,49029
24.6975,50546
24.7032,51400
24.7089,49232
24.7146,48493
24.7204,48999
24.7261,48004
24.7318,48461
24.7375,48611
24.7433,48240
24.749,50641
24.7547,49132
24.7604,47507
24.7661,50449
24.7719,51191
24.7776,49563
24.7833,51412
24.789,50018
24.7948,50574
24.8005,51107
24.8062,49394
24.8119,49839
24.8176,48933
24.8234,51240
24.8291,48313
24.8348,51521
24.8405,49441
24.8463,48828
24.852,50886
24.8577,49824
24.8634,50123
24.8691,50615
24.8749,48727
24.8806,50797
24.8863,49524
24.892,49354
24.8978,50620
24.9035,50889
24.9092,49190
24.9149,48707
24.9206,48710
24.9264,49671
24.9321,50520
24.9378,49614
24.9435,49924
24.9492,49174
24.955,47284
24.9607,51839
24.9664,46929
24.9721,50250
24.9779,51533
24.9836,49706
24.9893,50078
24.995,50088
