C:\MSDCHEM\1\DATA\SERINA\20180424_NLTAB_FRESH\SLR2_12_NltA_1.d 24 Apr 18   4:15 pm
Start of data points
4.09247,9601
4.0982,8087
4.10392,8257
4.10963,8616
4.11537,7710
4.12108,7916
4.1268,8403
4.13253,7897
4.13825,8362
4.14397,7318
4.1497,7841
4.15542,7806
4.16113,6083
4.16687,7822
4.17258,6962
4.1783,7161
4.18403,6888
4.18975,6341
4.19547,6701
4.2012,6178
4.20692,6675
4.21263,6260
4.21835,6931
4.22408,5725
4.2298,5585
4.23552,6267
4.24125,6411
4.24697,5278
4.25268,6034
4.25842,6174
4.26413,6026
4.26985,4481
4.27558,4870
4.2813,5083
4.28702,5188
4.29275,5427
4.29847,5207
4.30418,4877
4.30992,4766
4.31563,4918
4.32135,5165
4.32708,4834
4.3328,5075
4.33852,4510
4.34423,4134
4.34997,4627
4.35568,4611
4.3614,3800
4.36713,4780
4.37285,4453
4.37857,3959
4.3843,3854
4.39002,4061
4.39573,3320
4.40147,3621
4.40718,4020
4.4129,3760
4.41863,3885
4.42435,3475
4.43007,3227
4.4358,4005
4.44152,3182
4.44723,3115
4.45297,3573
4.45868,4064
4.4644,2862
4.47012,3872
4.47585,3466
4.48157,3490
4.48728,3212
4.49302,3097
4.49873,3865
4.50445,2833
4.51018,2792
4.5159,3250
4.52162,3092
4.52735,3593
4.53307,3639
4.53878,3581
4.54452,3847
4.55023,3069
4.55595,3371
4.56168,2896
4.5674,2946
4.57312,2919
4.57885,3529
4.58457,2676
4.59028,2896
4.596,3227
4.60173,2375
4.60745,2553
4.61317,2418
4.6189,2544
4.62462,2986
4.63033,2846
4.63607,2450
4.64178,2472
4.6475,2272
4.65323,2859
4.65895,2320
4.66467,2557
4.6704,2773
4.67612,2315
4.68183,2514
4.68757,2311
4.69328,2013
4.699,2603
4.70473,2684
4.71045,2730
4.71617,3072
4.72188,2514
4.72762,2691
4.73333,2000
4.73905,2233
4.74478,2244
4.7505,2309
4.75622,2602
4.76195,2396
4.76767,1846
4.77338,2603
4.77912,2650
4.78483,2359
4.79055,2159
4.79628,1719
4.802,2349
4.80772,2502
4.81345,2289
4.81917,2590
4.82488,2034
4.83062,2479
4.83633,2098
4.84205,2362
4.84777,2312
4.8535,3004
4.85922,1811
4.86493,2803
4.87067,1861
4.87638,2098
4.8821,2130
4.88783,1941
4.89355,2400
4.89927,1900
4.905,1820
4.91072,1720
4.91643,1694
4.92217,1514
4.92788,1998
4.9336,1958
4.93933,2062
4.94505,2043
4.95077,1688
4.9565,1547
4.96222,2255
4.96793,1643
4.97365,1734
4.97938,1607
4.9851,1574
4.99082,1879
4.99655,1478
5.00227,1818
5.00798,1894
5.01372,1580
5.01943,1627
5.02515,1631
5.03088,1566
5.0366,1905
5.04232,2125
5.04805,1761
5.05377,1648
5.05948,1307
5.06522,1460
5.07093,1726
5.07665,1691
5.08238,1407
5.0881,1717
5.09382,1362
5.09953,1493
5.10527,1390
5.11098,1522
5.1167,1550
5.12243,1426
5.12815,1406
5.13387,1872
5.1396,1689
5.14532,1758
5.15103,1244
5.15677,1090
5.16248,1537
5.1682,1194
5.17393,1008
5.17965,1803
5.18537,1320
5.1911,1624
5.19682,1719
5.20253,1212
5.20827,1600
5.21398,1328
5.2197,1609
5.22542,1159
5.23115,1267
5.23687,1437
5.24258,1487
5.24832,1152
5.25403,1540
5.25975,1429
5.26548,1491
5.2712,1808
5.27692,1428
5.28265,1241
5.28837,1315
5.29408,1661
5.29982,1491
5.30553,1160
5.31125,1508
5.31698,1514
5.3227,1936
5.32842,1852
5.33415,1497
5.33987,1537
5.34558,1679
5.3513,1549
5.35703,1639
5.36275,1380
5.36847,1650
5.3742,1671
5.37992,1795
5.38563,1805
5.39137,1333
5.39708,1619
5.4028,913
5.40853,1479
5.41425,1300
5.41997,1766
5.4257,1348
5.43142,1533
5.43713,1549
5.44287,1437
5.44858,1292
5.4543,1054
5.46003,1566
5.46575,1560
5.47147,1677
5.47718,1262
5.48292,1304
5.48863,1234
5.49435,1669
5.50008,1395
5.5058,1383
5.51152,1348
5.51725,1547
5.52297,1656
5.52868,1028
5.53442,1328
5.54013,1526
5.54585,1427
5.55158,1216
5.5573,1312
5.56302,1005
5.56875,1303
5.57447,1777
5.58018,1008
5.58592,842
5.59163,1484
5.59735,976
5.60307,1104
5.6088,753
5.61452,907
5.62023,1062
5.62597,906
5.63168,1445
5.6374,1055
5.64313,1327
5.64885,1326
5.65457,1100
5.6603,1006
5.66602,654
5.67173,1181
5.67747,1313
5.68318,1219
5.6889,1288
5.69463,1115
5.70035,1063
5.70607,1234
5.7118,1161
5.71752,1076
5.72323,1166
5.72895,788
5.73468,1210
5.7404,1096
5.74612,1291
5.75185,1212
5.75757,1016
5.76328,1194
5.76902,956
5.77473,877
5.78045,1048
5.78618,943
5.7919,1032
5.79762,899
5.80335,1094
5.80907,1016
5.81478,898
5.82052,1131
5.82623,1045
5.83195,1186
5.83768,849
5.8434,1101
5.84912,1250
5.85483,1212
5.86057,1098
5.86628,874
5.872,1004
5.87773,1156
5.88345,1231
5.88917,1251
5.8949,998
5.90062,1075
5.90633,1312
5.91207,1484
5.91778,1160
5.9235,1430
5.92923,1452
5.93495,1609
5.94067,1546
5.9464,1319
5.95212,1059
5.95783,1482
5.96357,1029
5.96928,1081
5.975,939
5.98073,843
5.98645,802
5.99217,951
5.99788,1535
6.00362,1121
6.00933,1216
6.01505,1542
6.02078,1293
6.0265,1066
6.03222,795
6.03795,885
6.04367,919
6.04938,1189
6.05512,951
6.06083,826
6.06655,953
6.07228,901
6.078,558
6.08372,976
6.08945,1129
6.09517,864
6.10088,738
6.10662,1016
6.11233,1105
6.11805,1264
6.12377,659
6.1295,1236
6.13522,847
6.14093,787
6.14667,870
6.15238,1066
6.1581,763
6.16383,1010
6.16955,1047
6.17527,820
6.181,717
6.18672,1090
6.19243,635
6.19817,675
6.20388,1086
6.2096,846
6.21533,931
6.22105,762
6.22677,908
6.2325,1035
6.23822,1169
6.24393,884
6.24965,1031
6.25538,983
6.2611,878
6.26682,1028
6.27255,1225
6.27827,801
6.28398,1622
6.28972,659
6.29543,734
6.30115,647
6.30688,967
6.3126,1131
6.31832,1078
6.32405,1146
6.32977,699
6.33548,711
6.34122,918
6.34693,965
6.35265,824
6.35838,840
6.3641,1400
6.36982,1043
6.37553,1143
6.38127,521
6.38698,958
6.3927,897
6.39843,1184
6.40415,812
6.40987,719
6.4156,918
6.42132,841
6.42703,701
6.43277,813
6.43848,1131
6.4442,893
6.44993,714
6.45565,1016
6.46137,714
6.4671,934
6.47282,831
6.47853,752
6.48427,751
6.48998,633
6.4957,583
6.50142,886
6.50715,760
6.51287,665
6.51858,838
6.52432,1083
6.53003,1056
6.53575,1060
6.54148,846
6.5472,929
6.55292,965
6.55865,875
6.56437,987
6.57008,1001
6.57582,643
6.58153,880
6.58725,859
6.59298,759
6.5987,971
6.60442,786
6.61015,880
6.61587,940
6.62158,1025
6.6273,1012
6.63303,754
6.63875,678
6.64447,862
6.6502,812
6.65592,568
6.66163,626
6.66737,720
6.67308,905
6.6788,786
6.68453,743
6.69025,737
6.69597,837
6.7017,902
6.70742,655
6.71313,739
6.71887,630
6.72458,1059
6.7303,1008
6.73603,815
6.74175,697
6.74747,1232
6.75318,1157
6.75892,1943
6.76463,2212
6.77035,2736
6.77608,2589
6.7818,2084
6.78752,2220
6.79325,1641
6.79897,1627
6.80468,1289
6.81042,1518
6.81613,844
6.82185,1340
6.82758,877
6.8333,708
6.83902,1011
6.84475,1049
6.85047,1192
6.85618,887
6.86192,777
6.86763,902
6.87335,704
6.87907,908
6.8848,1083
6.89052,1106
6.89623,701
6.90197,718
6.90768,1225
6.9134,1186
6.91913,777
6.92485,960
6.93057,829
6.9363,793
6.94202,848
6.94773,897
6.95347,904
6.95918,585
6.9649,796
6.97063,823
6.97635,815
6.98207,817
6.9878,695
6.99352,905
6.99923,962
7.00495,775
7.01068,923
7.0164,733
7.02212,801
7.02785,963
7.03357,921
7.03928,830
7.04502,542
7.05073,558
7.05645,797
7.06218,792
7.0679,748
7.07362,525
7.07935,723
7.08507,1039
7.09078,724
7.09652,789
7.10223,932
7.10795,998
7.11368,896
7.1194,549
7.12512,538
7.13083,730
7.13657,878
7.14228,736
7.148,881
7.15373,671
7.15945,793
7.16517,770
7.1709,646
7.17662,567
7.18233,551
7.18807,646
7.19378,556
7.1995,853
7.20523,675
7.21095,559
7.21667,714
7.2224,772
7.22812,827
7.23383,688
7.23957,711
7.24528,501
7.251,524
7.25672,442
7.26245,798
7.26817,629
7.27388,927
7.27962,799
7.28533,866
7.29105,650
7.29678,872
7.3025,606
7.30822,685
7.31395,616
7.31967,507
7.32538,548
7.33112,420
7.33683,647
7.34255,636
7.34828,637
7.354,784
7.35972,775
7.36545,966
7.37117,829
7.37688,576
7.3826,898
7.38833,775
7.39405,644
7.39977,654
7.4055,810
7.41122,542
7.41693,777
7.42267,791
7.42838,456
7.4341,521
7.43983,737
7.44555,543
7.45127,704
7.457,668
7.46272,707
7.46843,769
7.47417,714
7.47988,594
7.4856,548
7.49133,539
7.49705,728
7.50277,338
7.50848,458
7.51422,771
7.51993,595
7.52565,658
7.53138,844
7.5371,660
7.54282,652
7.54855,529
7.55427,530
7.55998,607
7.56572,525
7.57143,198
7.57715,847
7.58288,604
7.5886,899
7.59432,818
7.60005,608
7.60577,716
7.61148,688
7.61722,482
7.62293,546
7.62865,656
7.63437,597
7.6401,681
7.64582,661
7.65153,604
7.65727,1129
7.66298,690
7.6687,607
7.67443,203
7.68015,742
7.68587,560
7.6916,593
7.69732,462
7.70303,496
7.70877,613
7.71448,652
7.7202,668
7.72593,721
7.73165,546
7.73737,677
7.7431,432
7.74882,427
7.75453,797
7.76025,518
7.76598,479
7.7717,509
7.77742,649
7.78315,309
7.78887,529
7.79458,324
7.80032,523
7.80603,495
7.81175,509
7.81748,316
7.8232,677
7.82892,571
7.83465,561
7.84037,598
7.84608,401
7.85182,500
7.85753,680
7.86325,516
7.86898,717
7.8747,519
7.88042,740
7.88613,837
7.89187,643
7.89758,544
7.9033,239
7.90903,359
7.91475,445
7.92047,817
7.9262,318
7.93192,484
7.93763,498
7.94337,230
7.94908,239
7.9548,463
7.96053,526
7.96625,455
7.97197,553
7.9777,753
7.98342,676
7.98913,326
7.99487,664
8.00058,423
8.0063,412
8.01202,804
8.01775,565
8.02347,517
8.02918,473
8.03492,440
8.04063,634
8.04635,776
8.05208,718
8.0578,565
8.06352,755
8.06925,192
8.07497,510
8.08068,209
8.08642,632
8.09213,784
8.09785,479
8.10358,480
8.1093,630
8.11502,212
8.12075,525
8.12647,820
8.13218,699
8.1379,605
8.14363,530
8.14935,527
8.15507,525
8.1608,490
8.16652,515
8.17223,460
8.17797,333
8.18368,253
8.1894,438
8.19513,431
8.20085,197
8.20657,402
8.2123,717
8.21802,415
8.22373,458
8.22947,834
8.23518,445
8.2409,476
8.24663,587
8.25235,848
8.25807,429
8.26378,621
8.26952,354
8.27523,486
8.28095,588
8.28668,444
8.2924,882
8.29812,589
8.30385,630
8.30957,637
8.31528,487
8.32102,459
8.32673,236
8.33245,296
8.33818,513
8.3439,559
8.34962,678
8.35535,432
8.36107,1055
8.36678,1335
8.37252,1060
8.37823,573
8.38395,1021
8.38967,699
8.3954,647
8.40112,601
8.40683,820
8.41257,535
8.41828,594
8.424,561
8.42973,216
8.43545,378
8.44117,563
8.4469,530
8.45262,706
8.45833,390
8.46407,758
8.46978,578
8.4755,567
8.48123,636
8.48695,507
8.49267,623
8.4984,614
8.50412,395
8.50983,299
8.51555,756
8.52128,443
8.527,493
8.53272,533
8.53845,329
8.54417,633
8.54988,591
8.55562,363
8.56133,506
8.56705,635
8.57278,609
8.5785,155
8.58422,273
8.58995,491
8.59567,429
8.60138,480
8.60712,348
8.61283,243
8.61855,508
8.62428,424
8.63,344
8.63572,361
8.64143,502
8.64717,468
8.65288,463
8.6586,539
8.66433,225
8.67005,642
8.67577,335
8.6815,585
8.68722,748
8.69293,198
8.69867,720
8.70438,467
8.7101,219
8.71583,558
8.72155,499
8.72727,553
8.733,529
8.73872,296
8.74443,620
8.75017,451
8.75588,427
8.7616,602
8.76732,216
8.77305,415
8.77877,408
8.78448,497
8.79022,517
8.79593,216
8.80165,673
8.80738,476
8.8131,283
8.81882,589
8.82455,384
8.83027,385
8.83598,402
8.84172,492
8.84743,375
8.85315,260
8.85888,196
8.8646,348
8.87032,475
8.87605,411
8.88177,711
8.88748,704
8.8932,534
8.89893,347
8.90465,685
8.91037,578
8.9161,465
8.92182,710
8.92753,1157
8.93327,1198
8.93898,981
8.9447,669
8.95043,520
8.95615,608
8.96187,797
8.9676,425
8.97332,510
8.97903,474
8.98477,446
8.99048,546
8.9962,721
9.00193,649
9.00765,402
9.01337,374
9.01908,542
9.02482,230
9.03053,361
9.03625,231
9.04198,627
9.0477,468
9.05342,935
9.05915,1098
9.06487,3376
9.07058,7504
9.07632,12924
9.08203,15588
9.08775,14882
9.09348,10852
9.0992,7992
9.10492,4273
9.11065,2839
9.11637,1631
9.12208,1077
9.12782,876
9.13353,464
9.13925,548
9.14497,652
9.1507,490
9.15642,366
9.16213,626
9.16787,418
9.17358,554
9.1793,450
9.18503,424
9.19075,809
9.19647,396
9.2022,542
9.20792,211
9.21363,362
9.21937,510
9.22508,415
9.2308,614
9.23653,324
9.24225,330
9.24797,356
9.2537,0
9.25942,421
9.26513,562
9.27085,415
9.27658,515
9.2823,725
9.28802,471
9.29375,489
9.29947,408
9.30518,440
9.31092,396
9.31663,156
9.32235,0
9.32808,434
9.3338,463
9.33952,468
9.34525,197
9.35097,174
9.35668,508
9.36242,384
9.36813,452
9.37385,374
9.37958,173
9.3853,578
9.39102,159
9.39673,419
9.40247,498
9.40818,284
9.4139,755
9.41963,417
9.42535,435
9.43107,333
9.4368,329
9.44252,443
9.44823,193
9.45397,303
9.45968,559
9.4654,539
9.47113,163
9.47685,0
9.48257,209
9.4883,311
9.49402,341
9.49973,370
9.50547,249
9.51118,416
9.5169,469
9.52263,222
9.52835,206
9.53407,241
9.53978,480
9.54552,438
9.55123,373
9.55695,445
9.56268,519
9.5684,322
9.57412,589
9.57985,312
9.58557,531
9.59128,388
9.59702,401
9.60273,217
9.60845,625
9.61418,447
9.6199,517
9.62562,164
9.63135,529
9.63707,395
9.64278,530
9.64852,556
9.65423,385
9.65995,0
9.66567,374
9.6714,376
9.67712,678
9.68283,396
9.68857,183
9.69428,592
9.7,503
9.70573,406
9.71145,0
9.71717,333
9.7229,0
9.72862,242
9.73433,380
9.74007,733
9.74578,554
9.7515,0
9.75723,500
9.76295,355
9.76867,442
9.7744,326
9.78012,217
9.78583,684
9.79155,390
9.79728,344
9.803,252
9.80872,718
9.81445,653
9.82017,213
9.82588,239
9.83162,357
9.83733,391
9.84305,544
9.84878,215
9.8545,654
9.86022,229
9.86595,631
9.87167,376
9.87738,172
9.88312,497
9.88883,0
9.89455,601
9.90028,581
9.906,152
9.91172,380
9.91743,405
9.92317,432
9.92888,313
9.9346,173
9.94033,489
9.94605,209
9.95177,481
9.9575,247
9.96322,509
9.96893,165
9.97467,443
9.98038,345
9.9861,407
9.99183,545
9.99755,154
10.0033,193
10.009,301
10.0147,607
10.0204,426
10.0262,0
10.0319,243
10.0376,394
10.0433,507
10.0491,243
10.0548,379
10.0605,471
10.0662,584
10.0719,155
10.0777,363
10.0834,0
10.0891,609
10.0948,153
10.1006,431
10.1063,406
10.112,487
10.1177,461
10.1234,166
10.1292,158
10.1349,607
10.1406,454
10.1463,181
10.1521,397
10.1578,152
10.1635,158
10.1692,163
10.1749,0
10.1807,180
10.1864,195
10.1921,364
10.1978,252
10.2035,388
10.2093,384
10.215,170
10.2207,536
10.2264,336
10.2322,344
10.2379,410
10.2436,358
10.2493,154
10.255,407
10.2608,476
10.2665,527
10.2722,592
10.2779,1324
10.2837,759
10.2894,1155
10.2951,921
10.3008,525
10.3065,556
10.3123,343
10.318,320
10.3237,599
10.3294,402
10.3352,461
10.3409,367
10.3466,195
10.3523,450
10.358,214
10.3638,494
10.3695,346
10.3752,186
10.3809,0
10.3867,390
10.3924,497
10.3981,332
10.4038,0
10.4095,191
10.4153,418
10.421,0
10.4267,179
10.4324,402
10.4381,150
10.4439,352
10.4496,0
10.4553,555
10.461,160
10.4668,521
10.4725,176
10.4782,203
10.4839,734
10.4896,679
10.4954,385
10.5011,248
10.5068,456
10.5125,0
10.5183,335
10.524,220
10.5297,378
10.5354,0
10.5411,361
10.5469,315
10.5526,342
10.5583,165
10.564,156
10.5698,723
10.5755,1036
10.5812,851
10.5869,1008
10.5926,371
10.5984,0
10.6041,658
10.6098,416
10.6155,455
10.6213,387
10.627,0
10.6327,0
10.6384,0
10.6441,217
10.6499,399
10.6556,214
10.6613,410
10.667,746
10.6727,198
10.6785,330
10.6842,0
10.6899,530
10.6956,247
10.7014,216
10.7071,181
10.7128,174
10.7185,427
10.7242,0
10.73,170
10.7357,440
10.7414,259
10.7471,353
10.7529,167
10.7586,238
10.7643,0
10.77,161
10.7757,608
10.7815,181
10.7872,334
10.7929,332
10.7986,307
10.8044,563
10.8101,420
10.8158,394
10.8215,387
10.8272,429
10.833,176
10.8387,195
10.8444,1301
10.8501,2551
10.8559,4319
10.8616,4708
10.8673,3736
10.873,4177
10.8787,2570
10.8845,1808
10.8902,1505
10.8959,998
10.9016,1118
10.9074,806
10.9131,837
10.9188,422
10.9245,274
10.9302,457
10.936,611
10.9417,458
10.9474,198
10.9531,199
10.9588,599
10.9646,582
10.9703,1238
10.976,683
10.9817,541
10.9875,366
10.9932,615
10.9989,379
11.0046,159
11.0103,0
11.0161,220
11.0218,0
11.0275,0
11.0332,645
11.039,598
11.0447,181
11.0504,222
11.0561,515
11.0618,546
11.0676,358
11.0733,153
11.079,352
11.0847,237
11.0905,412
11.0962,400
11.1019,407
11.1076,409
11.1133,349
11.1191,1587
11.1248,4086
11.1305,11589
11.1362,19146
11.142,26016
11.1477,22935
11.1534,14831
11.1591,6772
11.1648,2355
11.1706,177
11.1763,0
11.182,0
11.1877,317
11.1934,458
11.1992,0
11.2049,368
11.2106,369
11.2163,231
11.2221,152
11.2278,198
11.2335,339
11.2392,248
11.2449,199
11.2507,315
11.2564,557
11.2621,556
11.2678,514
11.2736,345
11.2793,359
11.285,0
11.2907,374
11.2964,188
11.3022,315
11.3079,422
11.3136,0
11.3193,182
11.3251,341
11.3308,174
11.3365,0
11.3422,0
11.3479,0
11.3537,170
11.3594,344
11.3651,0
11.3708,214
11.3766,0
11.3823,0
11.388,0
11.3937,184
11.3994,263
11.4052,175
11.4109,170
11.4166,0
11.4223,222
11.428,465
11.4338,441
11.4395,266
11.4452,905
11.4509,1419
11.4567,1146
11.4624,1324
11.4681,456
11.4738,654
11.4795,404
11.4853,226
11.491,150
11.4967,510
11.5024,0
11.5082,163
11.5139,184
11.5196,209
11.5253,176
11.531,544
11.5368,161
11.5425,169
11.5482,233
11.5539,0
11.5597,0
11.5654,187
11.5711,432
11.5768,374
11.5825,0
11.5883,354
11.594,0
11.5997,0
11.6054,203
11.6112,207
11.6169,0
11.6226,178
11.6283,377
11.634,180
11.6398,0
11.6455,379
11.6512,0
11.6569,166
11.6627,748
11.6684,406
11.6741,0
11.6798,193
11.6855,400
11.6913,210
11.697,223
11.7027,347
11.7084,465
11.7141,0
11.7199,525
11.7256,242
11.7313,203
11.737,0
11.7428,0
11.7485,564
11.7542,0
11.7599,0
11.7656,631
11.7714,0
11.7771,0
11.7828,150
11.7885,345
11.7943,367
11.8,155
11.8057,0
11.8114,187
11.8171,0
11.8229,167
11.8286,175
11.8343,0
11.84,174
11.8458,176
11.8515,410
11.8572,0
11.8629,168
11.8686,179
11.8744,430
11.8801,0
11.8858,164
11.8915,0
11.8973,389
11.903,150
11.9087,195
11.9144,343
11.9201,372
11.9259,0
11.9316,201
11.9373,157
11.943,227
11.9487,218
11.9545,0
11.9602,223
11.9659,0
11.9716,153
11.9774,157
11.9831,181
11.9888,270
11.9945,195
12.0002,0
12.006,186
12.0117,397
12.0174,234
12.0231,344
12.0289,184
12.0346,170
12.0403,0
12.046,0
12.0517,154
12.0575,464
12.0632,178
12.0689,195
12.0746,231
12.0804,588
12.0861,405
12.0918,196
12.0975,229
12.1032,0
12.109,0
12.1147,155
12.1204,172
12.1261,0
12.1319,155
12.1376,204
12.1433,0
12.149,429
12.1547,702
12.1605,0
12.1662,0
12.1719,466
12.1776,164
12.1833,594
12.1891,463
12.1948,234
12.2005,0
12.2062,0
12.212,184
12.2177,0
12.2234,367
12.2291,432
12.2348,441
12.2406,572
12.2463,0
12.252,578
12.2577,157
12.2635,0
12.2692,275
12.2749,166
12.2806,0
12.2863,180
12.2921,161
12.2978,329
12.3035,322
12.3092,0
12.315,162
12.3207,0
12.3264,155
12.3321,0
12.3378,210
12.3436,176
12.3493,196
12.355,428
12.3607,0
12.3665,0
12.3722,0
12.3779,0
12.3836,199
12.3893,395
12.3951,391
12.4008,163
12.4065,164
12.4122,186
12.418,330
12.4237,357
12.4294,153
12.4351,224
12.4408,227
12.4466,0
12.4523,225
12.458,233
12.4637,179
12.4694,452
12.4752,0
12.4809,0
12.4866,213
12.4923,0
12.4981,184
12.5038,0
12.5095,178
12.5152,180
12.5209,0
12.5267,541
12.5324,171
12.5381,158
12.5438,0
12.5496,175
12.5553,385
12.561,364
12.5667,174
12.5724,191
12.5782,184
12.5839,0
12.5896,195
12.5953,161
12.6011,0
12.6068,0
12.6125,0
12.6182,182
12.6239,0
12.6297,158
12.6354,0
12.6411,220
12.6468,169
12.6526,183
12.6583,1007
12.664,1124
12.6697,957
12.6754,1056
12.6812,387
12.6869,0
12.6926,0
12.6983,0
12.704,352
12.7098,1168
12.7155,1577
12.7212,1508
12.7269,1475
12.7327,444
12.7384,241
12.7441,181
12.7498,195
12.7555,170
12.7613,0
12.767,164
12.7727,211
12.7784,0
12.7842,540
12.7899,0
12.7956,231
12.8013,421
12.807,175
12.8128,334
12.8185,268
12.8242,318
12.8299,350
12.8357,323
12.8414,0
12.8471,367
12.8528,334
12.8585,183
12.8643,359
12.87,0
12.8757,199
12.8814,0
12.8872,338
12.8929,150
12.8986,264
12.9043,0
12.91,252
12.9158,178
12.9215,0
12.9272,317
12.9329,282
12.9386,1773
12.9444,4804
12.9501,9791
12.9558,16593
12.9615,17581
12.9673,12839
12.973,7458
12.9787,3250
12.9844,860
12.9901,501
12.9959,167
13.0016,299
13.0073,0
13.013,217
13.0188,172
13.0245,166
13.0302,359
13.0359,0
13.0416,590
13.0474,357
13.0531,1139
13.0588,928
13.0645,604
13.0703,425
13.076,0
13.0817,0
13.0874,357
13.0931,0
13.0989,0
13.1046,523
13.1103,1285
13.116,1948
13.1218,3121
13.1275,2550
13.1332,2983
13.1389,1090
13.1446,1242
13.1504,812
13.1561,368
13.1618,910
13.1675,592
13.1733,354
13.179,849
13.1847,359
13.1904,771
13.1961,817
13.2019,1380
13.2076,2055
13.2133,2171
13.219,1313
13.2247,447
13.2305,171
13.2362,713
13.2419,618
13.2476,199
13.2534,716
13.2591,246
13.2648,179
13.2705,208
13.2762,151
13.282,354
13.2877,0
13.2934,0
13.2991,0
13.3049,0
13.3106,175
13.3163,0
13.322,0
13.3277,313
13.3335,0
13.3392,190
13.3449,151
13.3506,181
13.3564,0
13.3621,0
13.3678,195
13.3735,353
13.3792,410
13.385,154
13.3907,0
13.3964,214
13.4021,238
13.4079,0
13.4136,347
13.4193,341
13.425,157
13.4307,225
13.4365,373
13.4422,170
13.4479,213
13.4536,0
13.4593,0
13.4651,404
13.4708,234
13.4765,192
13.4822,232
13.488,314
13.4937,0
13.4994,151
13.5051,157
13.5108,184
13.5166,574
13.5223,0
13.528,150
13.5337,228
13.5395,348
13.5452,224
13.5509,572
13.5566,189
13.5623,207
13.5681,504
13.5738,0
13.5795,0
13.5852,261
13.591,358
13.5967,179
13.6024,0
13.6081,309
13.6138,319
13.6196,272
13.6253,181
13.631,304
13.6367,190
13.6425,690
13.6482,823
13.6539,411
13.6596,731
13.6653,385
13.6711,209
13.6768,215
13.6825,0
13.6882,0
13.694,0
13.6997,582
13.7054,179
13.7111,0
13.7168,497
13.7226,383
13.7283,159
13.734,0
13.7397,0
13.7454,182
13.7512,300
13.7569,373
13.7626,218
13.7683,0
13.7741,375
13.7798,388
13.7855,297
13.7912,444
13.7969,230
13.8027,182
13.8084,188
13.8141,0
13.8198,160
13.8256,260
13.8313,328
13.837,323
13.8427,251
13.8484,409
13.8542,481
13.8599,194
13.8656,189
13.8713,160
13.8771,0
13.8828,326
13.8885,292
13.8942,157
13.8999,0
13.9057,179
13.9114,343
13.9171,0
13.9228,0
13.9286,354
13.9343,0
13.94,0
13.9457,338
13.9514,366
13.9572,0
13.9629,0
13.9686,276
13.9743,0
13.98,0
13.9858,153
13.9915,0
13.9972,204
14.0029,0
14.0087,215
14.0144,425
14.0201,205
14.0258,491
14.0315,401
14.0373,167
14.043,597
14.0487,186
14.0544,192
14.0602,174
14.0659,0
14.0716,0
14.0773,210
14.083,0
14.0888,203
14.0945,335
14.1002,0
14.1059,179
14.1117,158
14.1174,163
14.1231,0
14.1288,186
14.1345,0
14.1403,192
14.146,470
14.1517,173
14.1574,239
14.1632,190
14.1689,0
14.1746,537
14.1803,404
14.186,0
14.1918,401
14.1975,151
14.2032,169
14.2089,0
14.2146,0
14.2204,380
14.2261,0
14.2318,162
14.2375,0
14.2433,158
14.249,520
14.2547,409
14.2604,0
14.2661,184
14.2719,150
14.2776,0
14.2833,417
14.289,430
14.2948,322
14.3005,351
14.3062,418
14.3119,181
14.3176,0
14.3234,187
14.3291,0
14.3348,0
14.3405,152
14.3463,187
14.352,0
14.3577,199
14.3634,204
14.3691,422
14.3749,156
14.3806,0
14.3863,399
14.392,444
14.3978,192
14.4035,176
14.4092,355
14.4149,416
14.4206,348
14.4264,197
14.4321,0
14.4378,240
14.4435,230
14.4493,285
14.455,0
14.4607,185
14.4664,193
14.4721,329
14.4779,0
14.4836,152
14.4893,184
14.495,477
14.5007,1018
14.5065,2262
14.5122,4125
14.5179,6921
14.5236,8502
14.5294,7639
14.5351,4482
14.5408,2289
14.5465,290
14.5522,546
14.558,323
14.5637,0
14.5694,321
14.5751,466
14.5809,0
14.5866,213
14.5923,582
14.598,184
14.6037,492
14.6095,0
14.6152,0
14.6209,216
14.6266,590
14.6324,521
14.6381,406
14.6438,184
14.6495,165
14.6552,230
14.661,180
14.6667,188
14.6724,455
14.6781,388
14.6839,178
14.6896,206
14.6953,0
14.701,243
14.7067,202
14.7125,222
14.7182,0
14.7239,152
14.7296,172
14.7353,221
14.7411,227
14.7468,165
14.7525,150
14.7582,178
14.764,576
14.7697,411
14.7754,152
14.7811,204
14.7868,200
14.7926,321
14.7983,0
14.804,240
14.8097,152
14.8155,0
14.8212,354
14.8269,432
14.8326,285
14.8383,540
14.8441,472
14.8498,0
14.8555,0
14.8612,343
14.867,199
14.8727,408
14.8784,363
14.8841,181
14.8898,346
14.8956,0
14.9013,441
14.907,166
14.9127,175
14.9185,253
14.9242,357
14.9299,175
14.9356,152
14.9413,261
14.9471,261
14.9528,0
14.9585,213
14.9642,0
14.9699,0
14.9757,271
14.9814,0
14.9871,452
14.9928,199
14.9986,450
15.0043,357
15.01,418
15.0157,309
15.0214,509
15.0272,654
15.0329,682
15.0386,575
15.0443,608
15.0501,347
15.0558,177
15.0615,226
15.0672,153
15.0729,158
15.0787,170
15.0844,177
15.0901,0
15.0958,403
15.1016,232
15.1073,152
15.113,0
15.1187,213
15.1244,329
15.1302,320
15.1359,306
15.1416,460
15.1473,352
15.1531,406
15.1588,390
15.1645,0
15.1702,169
15.1759,165
15.1817,0
15.1874,0
15.1931,228
15.1988,203
15.2046,406
15.2103,0
15.216,376
15.2217,347
15.2274,0
15.2332,179
15.2389,0
15.2446,199
15.2503,374
15.256,544
15.2618,532
15.2675,380
15.2732,251
15.2789,193
15.2847,152
15.2904,338
15.2961,201
15.3018,155
15.3075,167
15.3133,368
15.319,411
15.3247,346
15.3304,207
15.3362,426
15.3419,0
15.3476,211
15.3533,340
15.359,0
15.3648,232
15.3705,217
15.3762,214
15.3819,213
15.3877,257
15.3934,293
15.3991,182
15.4048,0
15.4105,525
15.4163,267
15.422,513
15.4277,249
15.4334,183
15.4392,247
15.4449,0
15.4506,198
15.4563,188
15.462,281
15.4678,194
15.4735,0
15.4792,477
15.4849,262
15.4906,336
15.4964,291
15.5021,464
15.5078,449
15.5135,496
15.5193,163
15.525,378
15.5307,348
15.5364,379
15.5421,399
15.5479,458
15.5536,280
15.5593,195
15.565,370
15.5708,349
15.5765,301
15.5822,344
15.5879,211
15.5936,356
15.5994,513
15.6051,241
15.6108,574
15.6165,0
15.6223,903
15.628,293
15.6337,367
15.6394,291
15.6451,246
15.6509,164
15.6566,159
15.6623,217
15.668,551
15.6738,637
15.6795,436
15.6852,683
15.6909,267
15.6966,472
15.7024,275
15.7081,372
15.7138,448
15.7195,252
15.7252,228
15.731,336
15.7367,254
15.7424,250
15.7481,380
15.7539,623
15.7596,250
15.7653,891
15.771,668
15.7767,583
15.7825,459
15.7882,588
15.7939,619
15.7996,384
15.8054,402
15.8111,196
15.8168,565
15.8225,0
15.8282,416
15.834,157
15.8397,213
15.8454,582
15.8511,343
15.8569,476
15.8626,429
15.8683,434
15.874,338
15.8797,348
15.8855,417
15.8912,550
15.8969,344
15.9026,581
15.9084,1768
15.9141,2843
15.9198,4592
15.9255,5640
15.9312,4806
15.937,3215
15.9427,1414
15.9484,1003
15.9541,850
15.9599,619
15.9656,489
15.9713,516
15.977,628
15.9827,155
15.9885,483
15.9942,232
15.9999,191
16.0056,335
16.0113,483
16.0171,238
16.0228,512
16.0285,204
16.0342,247
16.04,348
16.0457,370
16.0514,523
16.0571,533
16.0628,441
16.0686,433
16.0743,208
16.08,211
16.0857,705
16.0914,162
16.0972,587
16.1029,886
16.1086,610
16.1143,449
16.12,516
16.1258,583
16.1315,540
16.1372,408
16.1429,599
16.1487,498
16.1544,292
16.1601,177
16.1658,559
16.1716,318
16.1773,248
16.183,474
16.1887,412
16.1945,191
16.2002,568
16.2059,255
16.2116,219
16.2173,328
16.2231,217
16.2288,627
16.2345,294
16.2402,550
16.2459,493
16.2517,286
16.2574,480
16.2631,499
16.2688,235
16.2746,312
16.2803,616
16.286,831
16.2917,286
16.2974,377
16.3032,353
16.3089,187
16.3146,364
16.3203,884
16.326,519
16.3318,598
16.3375,202
16.3432,416
16.3489,558
16.3546,570
16.3604,623
16.3661,361
16.3718,316
16.3775,478
16.3833,554
16.389,545
16.3947,161
16.4004,582
16.4062,844
16.4119,790
16.4176,288
16.4233,545
16.4291,557
16.4348,464
16.4405,221
16.4462,643
16.4519,441
16.4577,372
16.4634,706
16.4691,415
16.4748,388
16.4805,461
16.4863,569
16.492,907
16.4977,573
16.5034,542
16.5092,297
16.5149,576
16.5206,222
16.5263,231
16.532,482
16.5378,531
16.5435,610
16.5492,295
16.5549,523
16.5606,491
16.5664,437
16.5721,504
16.5778,448
16.5835,624
16.5893,248
16.595,735
16.6007,497
16.6064,229
16.6122,813
16.6179,817
16.6236,480
16.6293,333
16.635,665
16.6408,211
16.6465,696
16.6522,526
16.6579,650
16.6637,596
16.6694,570
16.6751,448
16.6808,395
16.6865,601
16.6923,899
16.698,526
16.7037,431
16.7094,588
16.7152,668
16.7209,735
16.7266,579
16.7323,483
16.738,481
16.7437,595
16.7495,720
16.7552,571
16.7609,571
16.7666,445
16.7724,483
16.7781,1079
16.7838,492
16.7895,450
16.7952,433
16.801,551
16.8067,642
16.8124,629
16.8181,463
16.8239,505
16.8296,577
16.8353,396
16.841,328
16.8468,629
16.8525,1092
16.8582,807
16.8639,930
16.8696,1039
16.8754,425
16.8811,793
16.8868,568
16.8925,818
16.8983,681
16.904,607
16.9097,466
16.9154,677
16.9211,268
16.9269,529
16.9326,346
16.9383,1016
16.944,886
16.9498,662
16.9555,329
16.9612,859
16.9669,657
16.9726,400
16.9783,666
16.9841,542
16.9898,1253
16.9955,672
17.0012,815
17.007,524
17.0127,1107
17.0184,852
17.0241,723
17.0299,579
17.0356,625
17.0413,731
17.047,524
17.0527,1025
17.0585,632
17.0642,880
17.0699,896
17.0756,522
17.0814,927
17.0871,512
17.0928,679
17.0985,551
17.1042,772
17.11,684
17.1157,629
17.1214,807
17.1271,667
17.1329,1092
17.1386,1185
17.1443,935
17.15,597
17.1557,566
17.1614,922
17.1672,966
17.1729,751
17.1786,819
17.1843,1148
17.1901,1219
17.1958,2768
17.2015,3167
17.2072,4509
17.2129,3867
17.2187,2975
17.2244,1852
17.2301,951
17.2358,904
17.2416,858
17.2473,923
17.253,709
17.2587,749
17.2645,858
17.2702,506
17.2759,426
17.2816,645
17.2873,1112
17.2931,777
17.2988,1170
17.3045,1023
17.3102,570
17.316,858
17.3217,976
17.3274,1113
17.3331,640
17.3388,1238
17.3446,509
17.3503,859
17.356,682
17.3617,968
17.3675,886
17.3732,846
17.3789,599
17.3846,797
17.3903,870
17.396,1083
17.4018,1022
17.4075,1070
17.4132,756
17.4189,541
17.4247,995
17.4304,946
17.4361,804
17.4418,1376
17.4476,786
17.4533,1143
17.459,1443
17.4647,1098
17.4705,1371
17.4762,762
17.4819,912
17.4876,764
17.4933,853
17.4991,808
17.5048,991
17.5105,1331
17.5162,1129
17.5219,1349
17.5277,1090
17.5334,816
17.5391,835
17.5448,664
17.5506,957
17.5563,1020
17.562,726
17.5677,1166
17.5734,1006
17.5792,768
17.5849,1074
17.5906,1034
17.5963,959
17.6021,771
17.6078,863
17.6135,1327
17.6192,982
17.6249,687
17.6306,1036
17.6364,1230
17.6421,870
17.6478,1036
17.6535,950
17.6593,1095
17.665,1159
17.6707,963
17.6764,1094
17.6822,952
17.6879,969
17.6936,1262
17.6993,1044
17.7051,1099
17.7108,1018
17.7165,785
17.7222,676
17.7279,1057
17.7337,1070
17.7394,1137
17.7451,1029
17.7508,960
17.7565,1364
17.7623,1218
17.768,1301
17.7737,1150
17.7794,944
17.7852,1111
17.7909,798
17.7966,1266
17.8023,1051
17.808,1314
17.8138,1055
17.8195,1170
17.8252,1141
17.8309,811
17.8367,1351
17.8424,1337
17.8481,1124
17.8538,1077
17.8595,1477
17.8653,1195
17.871,1254
17.8767,1471
17.8824,1207
17.8882,1187
17.8939,1604
17.8996,1414
17.9053,1248
17.911,1755
17.9168,2429
17.9225,2842
17.9282,2422
17.9339,1863
17.9397,1370
17.9454,1655
17.9511,1323
17.9568,1087
17.9625,1579
17.9683,622
17.974,1152
17.9797,1440
17.9854,1135
17.9912,1034
17.9969,1152
18.0026,1057
18.0083,1021
18.014,1721
18.0198,1236
18.0255,1305
18.0312,1233
18.0369,1252
18.0426,1076
18.0484,1006
18.0541,1359
18.0598,1489
18.0655,1204
18.0712,1477
18.077,1478
18.0827,1253
18.0884,1692
18.0941,1199
18.0999,838
18.1056,1226
18.1113,1709
18.117,1458
18.1228,1484
18.1285,1134
18.1342,1532
18.1399,1215
18.1456,1604
18.1514,1561
18.1571,1369
18.1628,1245
18.1685,1598
18.1743,951
18.18,1133
18.1857,1419
18.1914,1656
18.1971,1193
18.2029,1871
18.2086,1256
18.2143,1175
18.22,1935
18.2258,1444
18.2315,1253
18.2372,1803
18.2429,1655
18.2486,1596
18.2544,1822
18.2601,1275
18.2658,1840
18.2715,1627
18.2772,1716
18.283,1393
18.2887,1372
18.2944,1775
18.3001,1662
18.3059,1801
18.3116,1710
18.3173,1648
18.323,1945
18.3287,1271
18.3345,1899
18.3402,2561
18.3459,1825
18.3516,2220
18.3574,3085
18.3631,4492
18.3688,4949
18.3745,5895
18.3802,4707
18.386,3253
18.3917,2966
18.3974,2039
18.4031,2201
18.4089,1723
18.4146,1793
18.4203,1866
18.426,1855
18.4317,2145
18.4375,1627
18.4432,2152
18.4489,1567
18.4546,1916
18.4604,2121
18.4661,1883
18.4718,2089
18.4775,2075
18.4832,2115
18.489,2233
18.4947,1431
18.5004,1871
18.5061,1820
18.5118,2009
18.5176,1909
18.5233,1838
18.529,1510
18.5347,1827
18.5405,2119
18.5462,2117
18.5519,1596
18.5576,2133
18.5633,2027
18.5691,2083
18.5748,2221
18.5805,1606
18.5862,2023
18.592,2048
18.5977,1962
18.6034,1707
18.6091,1935
18.6148,2167
18.6206,1695
18.6263,1975
18.632,2509
18.6377,2015
18.6435,2576
18.6492,1974
18.6549,1845
18.6606,2011
18.6663,2415
18.6721,2112
18.6778,1598
18.6835,2414
18.6892,2472
18.695,1755
18.7007,2121
18.7064,2090
18.7121,2171
18.7178,2246
18.7235,3165
18.7293,3914
18.735,6336
18.7407,13198
18.7464,20313
18.7522,24347
18.7579,20467
18.7636,12996
18.7693,6214
18.7751,3982
18.7808,2904
18.7865,2550
18.7922,2866
18.7979,3103
18.8037,2344
18.8094,2776
18.8151,2377
18.8208,2822
18.8266,2726
18.8323,2905
18.838,2623
18.8437,2762
18.8494,2773
18.8552,2838
18.8609,2939
18.8666,2787
18.8723,2451
18.8781,2529
18.8838,3194
18.8895,3397
18.8952,2729
18.9009,2695
18.9067,2333
18.9124,2684
18.9181,2899
18.9238,2679
18.9296,2930
18.9353,2282
18.941,3134
18.9467,3323
18.9524,3060
18.9582,3231
18.9639,3400
18.9696,2703
18.9753,2179
18.9811,2248
18.9868,2625
18.9925,2795
18.9982,2610
19.0039,3057
19.0097,2986
19.0154,3092
19.0211,2661
19.0268,2347
19.0325,3314
19.0383,3038
19.044,2444
19.0497,2755
19.0554,3002
19.0612,3825
19.0669,3053
19.0726,2680
19.0783,3250
19.084,3170
19.0898,2635
19.0955,3093
19.1012,3661
19.1069,2177
19.1127,2883
19.1184,3460
19.1241,3221
19.1298,3604
19.1355,2828
19.1412,4117
19.147,3658
19.1527,2806
19.1584,3332
19.1641,2509
19.1699,3782
19.1756,2920
19.1813,3457
19.187,2912
19.1928,2800
19.1985,3457
19.2042,3288
19.2099,3242
19.2157,3407
19.2214,3644
19.2271,3415
19.2328,3779
19.2385,4038
19.2443,3172
19.25,3443
19.2557,3967
19.2614,3417
19.2671,3780
19.2729,3495
19.2786,3928
19.2843,4500
19.29,3138
19.2958,3438
19.3015,4003
19.3072,3595
19.3129,3849
19.3186,4117
19.3244,3795
19.3301,3177
19.3358,4422
19.3415,3753
19.3473,4143
19.353,4008
19.3587,3594
19.3644,4086
19.3701,3551
19.3759,3932
19.3816,3139
19.3873,3603
19.393,4026
19.3988,3470
19.4045,3526
19.4102,4298
19.4159,3845
19.4216,5162
19.4274,4621
19.4331,6229
19.4388,7538
19.4445,7103
19.4503,7171
19.456,6054
19.4617,4721
19.4674,3757
19.4731,4217
19.4789,4548
19.4846,3907
19.4903,5055
19.496,4423
19.5018,3960
19.5075,3684
19.5132,4351
19.5189,3944
19.5246,3858
19.5304,4571
19.5361,3191
19.5418,4155
19.5475,4046
19.5532,4257
19.559,5132
19.5647,3488
19.5704,4365
19.5761,4108
19.5818,3979
19.5876,3660
19.5933,5177
19.599,4708
19.6047,4420
19.6105,3794
19.6162,4502
19.6219,4722
19.6276,4734
19.6334,4530
19.6391,4765
19.6448,4023
19.6505,4377
19.6562,4780
19.662,4848
19.6677,4674
19.6734,5314
19.6791,4658
19.6849,4590
19.6906,5613
19.6963,4310
19.702,5003
19.7077,5482
19.7135,5385
19.7192,4723
19.7249,5151
19.7306,4596
19.7364,4182
19.7421,4730
19.7478,5435
19.7535,4545
19.7592,4437
19.765,5105
19.7707,4378
19.7764,5059
19.7821,4370
19.7878,5313
19.7936,4403
19.7993,5901
19.805,4630
19.8107,5189
19.8165,6137
19.8222,6088
19.8279,4996
19.8336,4737
19.8393,5527
19.8451,5584
19.8508,5287
19.8565,5298
19.8622,5052
19.868,5884
19.8737,5509
19.8794,5197
19.8851,5418
19.8908,4613
19.8966,4858
19.9023,5175
19.908,5696
19.9137,5463
19.9195,6118
19.9252,5497
19.9309,6001
19.9366,5497
19.9423,5898
19.9481,4998
19.9538,5292
19.9595,5798
19.9652,5833
19.971,6057
19.9767,5658
19.9824,5488
19.9881,5533
19.9938,6095
19.9995,5512
20.0053,6969
20.011,5531
20.0167,5260
20.0224,5760
20.0282,6062
20.0339,5832
20.0396,5815
20.0453,6792
20.0511,6568
20.0568,6609
20.0625,6770
20.0682,6565
20.0739,6450
20.0797,5779
20.0854,6841
20.0911,6220
20.0968,7514
20.1026,6338
20.1083,6653
20.114,7730
20.1197,6511
20.1254,6490
20.1312,6854
20.1369,6219
20.1426,6262
20.1483,6471
20.1541,6219
20.1598,6579
20.1655,6858
20.1712,6528
20.1769,6578
20.1827,6222
20.1884,7142
20.1941,6494
20.1998,6743
20.2056,7585
20.2113,7822
20.217,6487
20.2227,6734
20.2284,6790
20.2342,7055
20.2399,6537
20.2456,5896
20.2513,6863
20.2571,7205
20.2628,6935
20.2685,7177
20.2742,7399
20.2799,6889
20.2857,8252
20.2914,7358
20.2971,7371
20.3028,6518
20.3085,7982
20.3143,7285
20.32,7373
20.3257,7610
20.3314,6877
20.3372,7262
20.3429,7662
20.3486,7288
20.3543,7154
20.36,7628
20.3658,7336
20.3715,7961
20.3772,7425
20.3829,6634
20.3887,8278
20.3944,7314
20.4001,7364
20.4058,7832
20.4115,7984
20.4172,7562
20.423,8675
20.4287,9066
20.4344,9771
20.4402,10639
20.4459,12547
20.4516,11686
20.4573,10487
20.463,9979
20.4688,9609
20.4745,8630
20.4802,7633
20.4859,7716
20.4917,7961
20.4974,8695
20.5031,8647
20.5088,7942
20.5145,8611
20.5203,8332
20.526,8928
20.5317,8252
20.5374,9448
20.5431,8267
20.5489,8742
20.5546,7905
20.5603,8265
20.566,9061
20.5718,8196
20.5775,8912
20.5832,9227
20.5889,9300
20.5946,8290
20.6004,8900
20.6061,9284
20.6118,8939
20.6175,8358
20.6233,9116
20.629,8424
20.6347,8612
20.6404,9475
20.6461,8894
20.6519,9457
20.6576,9396
20.6633,9577
20.669,9903
20.6748,8427
20.6805,9552
20.6862,9644
20.6919,11077
20.6976,9611
20.7034,9909
20.7091,10041
20.7148,9937
20.7205,8839
20.7263,10206
20.732,9860
20.7377,9887
20.7434,12103
20.7491,10184
20.7549,9768
20.7606,10388
20.7663,10419
20.772,10087
20.7778,10136
20.7835,10290
20.7892,9555
20.7949,10991
20.8006,9785
20.8064,10352
20.8121,9987
20.8178,10655
20.8235,10510
20.8292,10876
20.835,11346
20.8407,10433
20.8464,10494
20.8521,10293
20.8579,11449
20.8636,11137
20.8693,12185
20.875,11293
20.8807,11146
20.8865,11521
20.8922,12018
20.8979,11392
20.9036,10482
20.9094,11851
20.9151,11232
20.9208,11677
20.9265,11074
20.9322,11475
20.938,11185
20.9437,10829
20.9494,11628
20.9551,11504
20.9609,11360
20.9666,11154
20.9723,12224
20.978,12185
20.9837,11414
20.9895,11730
20.9952,12677
21.0009,12169
21.0066,12430
21.0124,13358
21.0181,12376
21.0238,13053
21.0295,12712
21.0352,12532
21.041,12214
21.0467,12844
21.0524,13359
21.0581,12690
21.0638,12351
21.0696,12929
21.0753,12674
21.081,11445
21.0867,12635
21.0924,12832
21.0982,13151
21.1039,12942
21.1096,13042
21.1153,13394
21.1211,12806
21.1268,12538
21.1325,12817
21.1382,13693
21.144,13053
21.1497,13662
21.1554,15066
21.1611,14583
21.1668,13515
21.1726,14258
21.1783,13729
21.184,14494
21.1897,14169
21.1955,15268
21.2012,14216
21.2069,14481
21.2126,15370
21.2183,14700
21.2241,13808
21.2298,14174
21.2355,13750
21.2412,15879
21.247,15078
21.2527,15601
21.2584,14688
21.2641,15212
21.2698,14236
21.2756,14959
21.2813,14758
21.287,14417
21.2927,15246
21.2984,15063
21.3042,14496
21.3099,14250
21.3156,14418
21.3213,16624
21.3271,16645
21.3328,15892
21.3385,15387
21.3442,15453
21.3499,15115
21.3557,16471
21.3614,15505
21.3671,16205
21.3728,16848
21.3786,15085
21.3843,17728
21.39,18945
21.3957,18501
21.4014,16956
21.4072,16907
21.4129,17551
21.4186,16045
21.4243,16764
21.4301,15651
21.4358,15773
21.4415,15584
21.4472,17073
21.4529,16734
21.4587,16178
21.4644,15940
21.4701,16399
21.4758,16549
21.4816,17459
21.4873,16575
21.493,17336
21.4987,16402
21.5044,17564
21.5101,17143
21.5159,17265
21.5216,16366
21.5273,16933
21.533,18334
21.5388,16866
21.5445,17028
21.5502,17919
21.5559,18124
21.5617,17305
21.5674,18317
21.5731,17838
21.5788,17039
21.5845,17838
21.5903,18498
21.596,19651
21.6017,19303
21.6074,18762
21.6132,18176
21.6189,18180
21.6246,18150
21.6303,20133
21.636,19559
21.6418,19190
21.6475,17531
21.6532,19468
21.6589,19131
21.6647,20760
21.6704,20117
21.6761,19440
21.6818,18642
21.6875,20206
21.6933,18092
21.699,19797
21.7047,18763
21.7104,19087
21.7162,19995
21.7219,20284
21.7276,21819
21.7333,21098
21.739,19994
21.7448,18615
21.7505,19545
21.7562,19905
21.7619,20551
21.7677,19457
21.7734,20199
21.7791,19613
21.7848,19770
21.7905,19926
21.7963,21707
21.802,19047
21.8077,19463
21.8134,21557
21.8191,21436
21.8249,20454
21.8306,22357
21.8363,20358
21.842,21165
21.8478,22022
21.8535,19889
21.8592,21608
21.8649,22422
21.8706,21480
21.8764,20579
21.8821,19521
21.8878,21801
21.8935,23612
21.8993,22971
21.905,22144
21.9107,22026
21.9164,22476
21.9221,21948
21.9278,22620
21.9336,22823
21.9393,22213
21.945,22213
21.9507,23338
21.9565,24741
21.9622,22744
21.9679,22792
21.9736,22717
21.9794,23003
21.9851,23686
21.9908,23944
21.9965,22787
22.0023,24363
22.008,23442
22.0137,23678
22.0194,21870
22.0251,24611
22.0309,25135
22.0366,24678
22.0423,23669
22.048,24479
22.0537,26723
22.0595,27313
22.0652,25871
22.0709,25729
22.0766,24115
22.0824,25306
22.0881,25120
22.0938,23140
22.0995,25413
22.1052,25470
22.111,26225
22.1167,25568
22.1224,23707
22.1281,26097
22.1339,24205
22.1396,24140
22.1453,26188
22.151,26113
22.1567,25701
22.1625,26553
22.1682,25420
22.1739,27088
22.1796,26789
22.1854,25502
22.1911,26941
22.1968,26501
22.2025,28165
22.2082,25934
22.214,26020
22.2197,27882
22.2254,25812
22.2311,27198
22.2369,26641
22.2426,27615
22.2483,27879
22.254,27446
22.2597,28871
22.2655,27853
22.2712,29774
22.2769,29206
22.2826,27644
22.2884,30671
22.2941,27545
22.2998,27171
22.3055,29402
22.3112,29593
22.317,29109
22.3227,28185
22.3284,29375
22.3341,29078
22.3398,31006
22.3456,29603
22.3513,31193
22.357,28444
22.3627,28016
22.3685,30205
22.3742,28715
22.3799,32430
22.3856,29495
22.3913,28710
22.3971,30461
22.4028,28473
22.4085,28007
22.4142,30857
22.42,31979
22.4257,30311
22.4314,30048
22.4371,29654
22.4428,31305
22.4486,30162
22.4543,30465
22.46,31227
22.4657,31831
22.4715,32943
22.4772,30721
22.4829,32135
22.4886,31042
22.4943,31852
22.5001,30998
22.5058,31858
22.5115,32205
22.5172,31789
22.523,32374
22.5287,31787
22.5344,31431
22.5401,31497
22.5458,31256
22.5516,30935
22.5573,31580
22.563,33731
22.5687,34366
22.5744,32749
22.5802,31931
22.5859,31527
22.5916,32909
22.5973,31872
22.6031,32212
22.6088,31182
22.6145,33375
22.6202,31437
22.6259,33261
22.6317,32926
22.6374,32807
22.6431,34663
22.6488,34116
22.6546,32624
22.6603,33813
22.666,35255
22.6717,34365
22.6774,33667
22.6832,34548
22.6889,35104
22.6946,34428
22.7003,34454
22.7061,34938
22.7118,34240
22.7175,33481
22.7232,34788
22.7289,34301
22.7347,35454
22.7404,33938
22.7461,34366
22.7518,35376
22.7576,34396
22.7633,35779
22.769,35676
22.7747,36161
22.7804,36775
22.7862,37455
22.7919,36805
22.7976,34973
22.8033,36554
22.809,36445
22.8148,34641
22.8205,35722
22.8262,34923
22.8319,36122
22.8377,33914
22.8434,38746
22.8491,36417
22.8548,37255
22.8605,38568
22.8663,37202
22.872,38110
22.8777,37789
22.8834,37949
22.8892,35957
22.8949,37637
22.9006,37295
22.9063,37796
22.912,37293
22.9178,37195
22.9235,38458
22.9292,36132
22.9349,39439
22.9407,38489
22.9464,39037
22.9521,37578
22.9578,37152
22.9635,37972
22.9693,39433
22.975,37177
22.9807,38735
22.9864,41025
22.9922,40116
22.9979,37797
23.0036,40117
23.0093,38201
23.015,38234
23.0208,40031
23.0265,39306
23.0322,38679
23.0379,40969
23.0437,38464
23.0494,41451
23.0551,38220
23.0608,42245
23.0665,40345
23.0723,38714
23.078,41474
23.0837,41275
23.0894,39539
23.0951,41078
23.1009,43135
23.1066,39176
23.1123,42381
23.118,40056
23.1238,38132
23.1295,42500
23.1352,40051
23.1409,42423
23.1466,40226
23.1524,40270
23.1581,42496
23.1638,40694
23.1695,40215
23.1753,41027
23.181,44001
23.1867,41580
23.1924,42688
23.1981,41834
23.2039,44274
23.2096,42413
23.2153,41428
23.221,42570
23.2268,42476
23.2325,41083
23.2382,42628
23.2439,41864
23.2496,44643
23.2554,42442
23.2611,43198
23.2668,44194
23.2725,41941
23.2783,43286
23.284,40738
23.2897,42582
23.2954,41648
23.3011,42239
23.3069,42644
23.3126,41647
23.3183,41774
23.324,46133
23.3297,43510
23.3355,41585
23.3412,43199
23.3469,43371
23.3526,42903
23.3584,44323
23.3641,41644
23.3698,44566
23.3755,45088
23.3812,43046
23.387,45411
23.3927,45742
23.3984,45038
23.4041,42329
23.4099,44862
23.4156,45903
23.4213,43920
23.427,43314
23.4327,43065
23.4385,43666
23.4442,42571
23.4499,45410
23.4556,45582
23.4613,43744
23.4671,43634
23.4728,45573
23.4785,46370
23.4842,44273
23.49,42873
23.4957,44811
23.5014,44912
23.5071,45993
23.5129,46917
23.5186,46352
23.5243,45056
23.53,47764
23.5357,45818
23.5415,46720
23.5472,46182
23.5529,46455
23.5586,43788
23.5643,47323
23.5701,47630
23.5758,45664
23.5815,45858
23.5872,46836
23.593,46354
23.5987,47382
23.6044,46773
23.6101,46577
23.6158,46847
23.6216,46313
23.6273,47307
23.633,47343
23.6387,45445
23.6445,46283
23.6502,47249
23.6559,48487
23.6616,47095
23.6673,48830
23.6731,46018
23.6788,45573
23.6845,46564
23.6902,49179
23.696,46527
23.7017,46294
23.7074,48126
23.7131,46227
23.7188,48051
23.7246,47504
23.7303,47387
23.736,47730
23.7417,47450
23.7475,44943
23.7532,48202
23.7589,48521
23.7646,45565
23.7703,45592
23.7761,49643
23.7818,47156
23.7875,46606
23.7932,45681
23.799,48784
23.8047,47158
23.8104,47383
23.8161,45956
23.8218,46987
23.8276,46412
23.8333,47875
23.839,48941
23.8447,49003
23.8504,49533
23.8562,49172
23.8619,47226
23.8676,45605
23.8733,49755
23.879,49268
23.8848,48198
23.8905,51254
23.8962,48617
23.9019,47188
23.9077,48003
23.9134,49327
23.9191,46971
23.9248,47917
23.9306,48544
23.9363,46592
23.942,48437
23.9477,49846
23.9534,49343
23.9592,48583
23.9649,47605
23.9706,47826
23.9763,48870
23.9821,47416
23.9878,47236
23.9935,48206
23.9992,50767
24.0049,48989
24.0107,47699
24.0164,48124
24.0221,48447
24.0278,46790
24.0336,46755
24.0393,46699
24.045,50006
24.0507,48891
24.0564,46530
24.0622,47549
24.0679,46824
24.0736,46556
24.0793,47014
24.085,48606
24.0908,48389
24.0965,48608
24.1022,48015
24.1079,48342
24.1137,46456
24.1194,48314
24.1251,46318
24.1308,47011
24.1365,46475
24.1423,48096
24.148,48449
24.1537,48404
24.1594,46058
24.1652,50346
24.1709,48706
24.1766,48283
24.1823,50553
24.188,48049
24.1938,47944
24.1995,46760
24.2052,47706
24.2109,46969
24.2167,47112
24.2224,49219
24.2281,46199
24.2338,45139
24.2395,48067
24.2453,47688
24.251,49426
24.2567,48269
24.2624,49297
24.2682,48843
24.2739,49363
24.2796,47749
24.2853,48741
24.291,48322
24.2967,47137
24.3025,48809
24.3082,47317
24.3139,47680
24.3197,48041
24.3254,49457
24.3311,45933
24.3368,49895
24.3425,46457
24.3483,48350
24.354,46942
24.3597,46123
24.3654,49169
24.3711,48745
24.3769,48281
24.3826,48656
24.3883,50218
24.394,47240
24.3998,47381
24.4055,48024
24.4112,48803
24.4169,49165
24.4226,49223
24.4284,48280
24.4341,47879
24.4398,47522
24.4455,48710
24.4513,48161
24.457,48126
24.4627,47608
24.4684,48271
24.4741,46159
24.4799,46815
24.4856,47360
24.4913,48215
24.497,48028
24.5028,47371
24.5085,45507
24.5142,48638
24.5199,50473
24.5256,48208
24.5314,46347
24.5371,47449
24.5428,46904
24.5485,47337
24.5543,48516
24.56,48049
24.5657,46295
24.5714,48452
24.5771,48642
24.5829,49270
24.5886,46907
24.5943,47384
24.6,48285
24.6057,45940
24.6115,52046
24.6172,50691
24.6229,48682
24.6286,49653
24.6344,48162
24.6401,49603
24.6458,48059
24.6515,47094
24.6572,47246
24.663,48146
24.6687,49470
24.6744,48755
24.6801,48433
24.6859,48655
24.6916,49109
24.6973,46914
24.703,44634
24.7087,46393
24.7145,48954
24.7202,48032
24.7259,47371
24.7316,46694
24.7374,47555
24.7431,48224
24.7488,48837
24.7545,49292
24.7602,50787
24.766,50204
24.7717,45699
24.7774,48681
24.7831,48000
24.7889,47490
24.7946,48611
24.8003,47780
24.806,47643
24.8117,48373
24.8175,47972
24.8232,50573
24.8289,50134
24.8346,49130
24.8403,48235
24.8461,49252
24.8518,46111
24.8575,48892
24.8632,48790
24.869,46546
24.8747,50065
24.8804,48629
24.8861,49438
24.8918,48887
24.8976,46476
24.9033,50468
24.909,48728
24.9147,45847
24.9205,47891
24.9262,49233
24.9319,48322
24.9376,47907
24.9433,47000
24.9491,47775
24.9548,47175
24.9605,51744
24.9662,47631
24.972,51526
24.9777,48394
24.9834,50157
24.9891,49389
24.9948,50316
