C:\MSDCHEM\1\DATA\SERINA\20180424_NLTAB_FRESH\SLR2_12_NltAplusB_2.d 24 Apr 18   2:50 pm
Start of data points
4.09267,17526
4.09838,16569
4.10412,16032
4.10983,16380
4.11555,14652
4.12128,15105
4.127,14951
4.13272,14212
4.13845,14589
4.14417,13716
4.14988,13103
4.15562,14400
4.16133,13624
4.16705,13154
4.17278,12436
4.1785,13047
4.18422,12048
4.18995,12563
4.19567,12240
4.20138,11285
4.2071,12180
4.21283,10340
4.21855,11268
4.22427,11072
4.23,11177
4.23572,10483
4.24143,10145
4.24717,10332
4.25288,9169
4.2586,9391
4.26433,9449
4.27005,8135
4.27577,8968
4.2815,10067
4.28722,8394
4.29293,9012
4.29867,8552
4.30438,8303
4.3101,8384
4.31583,7826
4.32155,7988
4.32727,7964
4.33298,7429
4.33872,7249
4.34443,7280
4.35015,6762
4.35588,7665
4.3616,6487
4.36732,7167
4.37305,6927
4.37877,6219
4.38448,6483
4.39022,6641
4.39593,6536
4.40165,6697
4.40738,6256
4.4131,6366
4.41882,6534
4.42455,5786
4.43027,5827
4.43598,5628
4.44172,5909
4.44743,6145
4.45315,5902
4.45887,6568
4.4646,5550
4.47032,5771
4.47603,5043
4.48177,5790
4.48748,5473
4.4932,5658
4.49893,5728
4.50465,5537
4.51037,5262
4.5161,5336
4.52182,4751
4.52753,5429
4.53327,4857
4.53898,4929
4.5447,5128
4.55043,5454
4.55615,4502
4.56187,4665
4.5676,4514
4.57332,4801
4.57903,4444
4.58475,4914
4.59048,4749
4.5962,4618
4.60192,4356
4.60765,4918
4.61337,4676
4.61908,4304
4.62482,4555
4.63053,4252
4.63625,4040
4.64198,4044
4.6477,4347
4.65342,3938
4.65915,4293
4.66487,4475
4.67058,4257
4.67632,4164
4.68203,4773
4.68775,3568
4.69348,3630
4.6992,4195
4.70492,3950
4.71063,3633
4.71637,4109
4.72208,4031
4.7278,4273
4.73353,4013
4.73925,4087
4.74497,4200
4.7507,3243
4.75642,3585
4.76213,3570
4.76787,4028
4.77358,3992
4.7793,3804
4.78503,3767
4.79075,2885
4.79647,3161
4.8022,3523
4.80792,3749
4.81363,3107
4.81937,3590
4.82508,3170
4.8308,3671
4.83652,3496
4.84225,3344
4.84797,3647
4.85368,3530
4.85942,2988
4.86513,3432
4.87085,2798
4.87658,3479
4.8823,3870
4.88802,2996
4.89375,3652
4.89947,2935
4.90518,2495
4.91092,2742
4.91663,3115
4.92235,2876
4.92808,3104
4.9338,3350
4.93952,3109
4.94525,2966
4.95097,3050
4.95668,3439
4.9624,3114
4.96813,2978
4.97385,3039
4.97957,3146
4.9853,3170
4.99102,2720
4.99673,2500
5.00247,2896
5.00818,2789
5.0139,2540
5.01963,2895
5.02535,2585
5.03107,3181
5.0368,2271
5.04252,2655
5.04823,2503
5.05397,2561
5.05968,2703
5.0654,2810
5.07113,2405
5.07685,2563
5.08257,2496
5.08828,2606
5.09402,2426
5.09973,2577
5.10545,2904
5.11118,2559
5.1169,2486
5.12262,2411
5.12835,2519
5.13407,1821
5.13978,2553
5.14552,2772
5.15123,2274
5.15695,2459
5.16268,2465
5.1684,2548
5.17412,2396
5.17985,1990
5.18557,2382
5.19128,2602
5.19702,2703
5.20273,2021
5.20845,2436
5.21417,2394
5.2199,2013
5.22562,2515
5.23133,2167
5.23707,2185
5.24278,2482
5.2485,2304
5.25423,2352
5.25995,2139
5.26567,2563
5.2714,1664
5.27712,2056
5.28283,2575
5.28857,2017
5.29428,2302
5.3,2656
5.30573,2605
5.31145,2748
5.31717,2664
5.3229,2566
5.32862,2742
5.33433,2509
5.34005,2446
5.34578,2613
5.3515,2607
5.35722,2442
5.36295,2863
5.36867,2832
5.37438,2951
5.38012,2026
5.38583,2172
5.39155,1590
5.39728,2257
5.403,2473
5.40872,2531
5.41445,2777
5.42017,2506
5.42588,2254
5.43162,2423
5.43733,2012
5.44305,2445
5.44878,2044
5.4545,1956
5.46022,1776
5.46593,1952
5.47167,1763
5.47738,1887
5.4831,2227
5.48883,2108
5.49455,2587
5.50027,2376
5.506,1760
5.51172,1974
5.51743,2265
5.52317,2023
5.52888,1481
5.5346,2099
5.54033,1997
5.54605,1788
5.55177,2162
5.5575,2230
5.56322,2053
5.56893,2120
5.57467,1672
5.58038,1828
5.5861,1895
5.59182,2434
5.59755,1845
5.60327,2068
5.60898,1956
5.61472,1641
5.62043,1682
5.62615,1575
5.63188,1916
5.6376,1975
5.64332,2125
5.64905,1725
5.65477,1654
5.66048,2191
5.66622,1419
5.67193,1646
5.67765,1509
5.68338,1611
5.6891,2051
5.69482,1532
5.70055,1883
5.70627,1715
5.71198,1688
5.7177,1652
5.72343,1606
5.72915,2244
5.73487,1746
5.7406,2001
5.74632,1583
5.75203,1379
5.75777,1426
5.76348,1519
5.7692,1708
5.77493,1590
5.78065,1148
5.78637,1767
5.7921,1590
5.79782,1846
5.80353,1643
5.80927,1937
5.81498,1788
5.8207,1958
5.82643,1631
5.83215,1742
5.83787,2103
5.84358,1654
5.84932,1499
5.85503,1605
5.86075,1731
5.86648,2029
5.8722,1259
5.87792,1893
5.88365,1585
5.88937,1410
5.89508,1497
5.90082,1224
5.90653,1838
5.91225,1695
5.91798,2571
5.9237,2485
5.92942,2087
5.93515,1470
5.94087,1661
5.94658,2338
5.95232,2048
5.95803,1492
5.96375,2260
5.96947,1610
5.9752,1948
5.98092,1312
5.98663,1763
5.99237,1861
5.99808,1981
6.0038,1645
6.00953,1801
6.01525,1820
6.02097,1339
6.0267,1932
6.03242,2040
6.03813,1504
6.04387,1433
6.04958,1341
6.0553,1510
6.06103,1411
6.06675,1647
6.07247,1382
6.0782,1525
6.08392,1304
6.08963,1204
6.09535,1504
6.10108,1544
6.1068,1350
6.11252,1677
6.11825,1315
6.12397,1288
6.12968,1830
6.13542,1491
6.14113,1120
6.14685,1672
6.15258,1627
6.1583,1283
6.16402,1094
6.16975,1287
6.17547,1470
6.18118,1180
6.18692,1119
6.19263,1531
6.19835,1531
6.20408,1668
6.2098,1231
6.21552,1317
6.22123,1102
6.22697,1553
6.23268,1212
6.2384,1218
6.24413,1401
6.24985,1154
6.25557,1438
6.2613,1529
6.26702,1269
6.27273,1066
6.27847,1179
6.28418,1075
6.2899,1689
6.29563,1342
6.30135,1203
6.30707,1129
6.3128,1138
6.31852,1156
6.32423,1540
6.32997,1359
6.33568,1604
6.3414,935
6.34712,1288
6.35285,1801
6.35857,1312
6.36428,1126
6.37002,1349
6.37573,1207
6.38145,1168
6.38718,1273
6.3929,1288
6.39862,1108
6.40435,1420
6.41007,1309
6.41578,1306
6.42152,1176
6.42723,1221
6.43295,1554
6.43868,1355
6.4444,1030
6.45012,1701
6.45585,1561
6.46157,1103
6.46728,1063
6.473,1268
6.47873,1317
6.48445,1618
6.49017,1429
6.4959,1109
6.50162,1281
6.50733,1361
6.51307,1212
6.51878,1107
6.5245,1004
6.53023,2005
6.53595,1096
6.54167,1370
6.5474,1169
6.55312,1095
6.55883,1133
6.56457,1215
6.57028,1298
6.576,1293
6.58173,1037
6.58745,1321
6.59317,933
6.59888,1210
6.60462,1196
6.61033,1172
6.61605,1127
6.62178,1314
6.6275,947
6.63322,1314
6.63895,1371
6.64467,1541
6.65038,1297
6.65612,1409
6.66183,1221
6.66755,1183
6.67328,1086
6.679,1047
6.68472,1031
6.69045,1136
6.69617,1303
6.70188,1738
6.70762,1096
6.71333,1465
6.71905,1163
6.72477,991
6.7305,1148
6.73622,1344
6.74193,1032
6.74767,1195
6.75338,1443
6.7591,1756
6.76483,1825
6.77055,1964
6.77627,1751
6.782,1774
6.78772,1901
6.79343,1770
6.79917,1618
6.80488,1366
6.8106,1021
6.81633,1497
6.82205,1150
6.82777,1024
6.8335,1058
6.83922,1387
6.84493,1291
6.85065,1445
6.85638,1254
6.8621,1285
6.86782,1053
6.87355,1067
6.87927,1157
6.88498,1090
6.89072,1241
6.89643,1270
6.90215,1272
6.90788,989
6.9136,1183
6.91932,1146
6.92505,1149
6.93077,1035
6.93648,914
6.94222,934
6.94793,1044
6.95365,1285
6.95938,1250
6.9651,1225
6.97082,1142
6.97653,1062
6.98227,1096
6.98798,1169
6.9937,870
6.99943,1109
7.00515,926
7.01087,1307
7.0166,967
7.02232,933
7.02803,1136
7.03377,1540
7.03948,867
7.0452,1090
7.05093,1495
7.05665,1174
7.06237,865
7.0681,1489
7.07382,1145
7.07953,1283
7.08527,1024
7.09098,1018
7.0967,1216
7.10242,862
7.10815,812
7.11387,1173
7.11958,1114
7.12532,938
7.13103,722
7.13675,1005
7.14248,893
7.1482,798
7.15392,1301
7.15965,796
7.16537,902
7.17108,877
7.17682,865
7.18253,940
7.18825,895
7.19398,894
7.1997,1130
7.20542,1064
7.21115,866
7.21687,1064
7.22258,979
7.2283,917
7.23403,1118
7.23975,1172
7.24547,1118
7.2512,1306
7.25692,931
7.26263,864
7.26837,966
7.27408,941
7.2798,1192
7.28553,639
7.29125,981
7.29697,868
7.3027,974
7.30842,1055
7.31413,880
7.31987,726
7.32558,1212
7.3313,788
7.33703,1296
7.34275,1140
7.34847,998
7.35418,719
7.35992,983
7.36563,820
7.37135,774
7.37708,1159
7.3828,701
7.38852,800
7.39425,781
7.39997,1134
7.40568,967
7.41142,973
7.41713,934
7.42285,423
7.42858,1078
7.4343,1202
7.44002,958
7.44575,1116
7.45147,1012
7.45718,972
7.46292,963
7.46863,973
7.47435,906
7.48007,942
7.4858,1082
7.49152,587
7.49723,941
7.50297,1053
7.50868,728
7.5144,924
7.52013,1116
7.52585,1202
7.53157,1032
7.5373,769
7.54302,1157
7.54873,774
7.55447,924
7.56018,725
7.5659,772
7.57163,878
7.57735,827
7.58307,961
7.5888,750
7.59452,939
7.60023,900
7.60597,983
7.61168,519
7.6174,673
7.62312,1062
7.62885,948
7.63457,648
7.64028,786
7.64602,963
7.65173,1073
7.65745,951
7.66318,838
7.6689,892
7.67462,1149
7.68035,867
7.68607,670
7.69178,995
7.69752,735
7.70323,772
7.70895,903
7.71468,938
7.7204,848
7.72612,901
7.73185,759
7.73757,1077
7.74328,856
7.749,785
7.75473,1059
7.76045,1011
7.76617,805
7.7719,612
7.77762,1011
7.78333,677
7.78907,1092
7.79478,987
7.8005,829
7.80623,1043
7.81195,946
7.81767,1142
7.8234,938
7.82912,842
7.83483,725
7.84057,716
7.84628,669
7.852,828
7.85773,871
7.86345,713
7.86917,652
7.87488,805
7.88062,1077
7.88633,1020
7.89205,866
7.89778,759
7.9035,955
7.90922,722
7.91495,1084
7.92067,802
7.92638,786
7.93212,992
7.93783,617
7.94355,888
7.94928,830
7.955,640
7.96072,672
7.96645,655
7.97217,755
7.97788,965
7.98362,852
7.98933,697
7.99505,1114
8.00077,774
8.0065,869
8.01222,872
8.01793,964
8.02367,756
8.02938,321
8.0351,806
8.04083,1082
8.04655,1139
8.05227,737
8.058,623
8.06372,793
8.06943,716
8.07517,784
8.08088,1023
8.0866,954
8.09233,879
8.09805,710
8.10377,784
8.1095,897
8.11522,832
8.12093,631
8.12665,942
8.13238,1043
8.1381,980
8.14382,729
8.14955,1092
8.15527,1192
8.16098,799
8.16672,901
8.17243,476
8.17815,958
8.18388,944
8.1896,1004
8.19532,1025
8.20105,1033
8.20677,959
8.21248,623
8.21822,947
8.22393,458
8.22965,699
8.23538,1076
8.2411,847
8.24682,823
8.25253,511
8.25827,908
8.26398,897
8.2697,857
8.27543,1216
8.28115,641
8.28687,735
8.2926,441
8.29832,852
8.30403,996
8.30977,783
8.31548,778
8.3212,888
8.32693,873
8.33265,922
8.33837,732
8.3441,903
8.34982,1084
8.35553,1033
8.36127,1341
8.36698,1387
8.3727,1347
8.37842,1646
8.38415,1268
8.38987,1064
8.39558,847
8.40132,980
8.40703,1220
8.41275,1060
8.41848,703
8.4242,781
8.42992,748
8.43565,396
8.44137,829
8.44708,449
8.45282,731
8.45853,812
8.46425,708
8.46998,1124
8.4757,590
8.48142,834
8.48715,669
8.49287,543
8.49858,1036
8.5043,858
8.51003,1005
8.51575,970
8.52147,881
8.5272,1081
8.53292,612
8.53863,627
8.54437,552
8.55008,577
8.5558,1342
8.56153,828
8.56725,732
8.57297,820
8.5787,643
8.58442,1192
8.59013,722
8.59587,576
8.60158,677
8.6073,595
8.61303,778
8.61875,584
8.62447,747
8.63018,755
8.63592,519
8.64163,766
8.64735,1308
8.65308,800
8.6588,1162
8.66452,1000
8.67025,830
8.67597,537
8.68168,1101
8.68742,1000
8.69313,708
8.69885,604
8.70458,727
8.7103,745
8.71602,778
8.72175,920
8.72747,778
8.73318,853
8.73892,313
8.74463,595
8.75035,802
8.75607,770
8.7618,487
8.76752,661
8.77323,541
8.77897,895
8.78468,913
8.7904,624
8.79613,811
8.80185,630
8.80757,645
8.8133,695
8.81902,998
8.82473,604
8.83047,950
8.83618,745
8.8419,446
8.84763,673
8.85335,504
8.85907,668
8.8648,834
8.87052,856
8.87623,629
8.88195,723
8.88768,1045
8.8934,683
8.89912,825
8.90485,748
8.91057,631
8.91628,671
8.92202,796
8.92773,1058
8.93345,1477
8.93918,1347
8.9449,1245
8.95062,1224
8.95635,847
8.96207,711
8.96778,571
8.97352,976
8.97923,677
8.98495,895
8.99068,682
8.9964,687
9.00212,733
9.00783,620
9.01357,833
9.01928,894
9.025,988
9.03073,609
9.03645,948
9.04217,518
9.0479,1161
9.05362,772
9.05933,1105
9.06507,2534
9.07078,6037
9.0765,8683
9.08223,10217
9.08795,9170
9.09367,7009
9.0994,4402
9.10512,3002
9.11083,2016
9.11657,1635
9.12228,1343
9.128,1100
9.13372,665
9.13945,802
9.14517,984
9.15088,743
9.15662,709
9.16233,528
9.16805,706
9.17378,1029
9.1795,615
9.18522,538
9.19095,895
9.19667,589
9.20238,551
9.20812,957
9.21383,713
9.21955,691
9.22528,727
9.231,689
9.23672,731
9.24245,603
9.24817,543
9.25388,666
9.2596,744
9.26533,573
9.27105,733
9.27677,474
9.2825,444
9.28822,660
9.29393,673
9.29967,453
9.30538,690
9.3111,702
9.31683,261
9.32255,603
9.32827,610
9.334,644
9.33972,483
9.34543,491
9.35117,731
9.35688,574
9.3626,581
9.36833,498
9.37405,516
9.37977,575
9.38548,672
9.39122,319
9.39693,463
9.40265,994
9.40838,459
9.4141,614
9.41982,532
9.42555,645
9.43127,222
9.43698,794
9.44272,503
9.44843,478
9.45415,726
9.45988,935
9.4656,500
9.47132,241
9.47705,410
9.48277,604
9.48848,789
9.49422,766
9.49993,431
9.50565,555
9.51137,723
9.5171,508
9.52282,835
9.52853,661
9.53427,664
9.53998,587
9.5457,371
9.55143,262
9.55715,512
9.56287,800
9.5686,605
9.57432,573
9.58003,500
9.58577,858
9.59148,503
9.5972,853
9.60293,752
9.60865,584
9.61437,497
9.6201,227
9.62582,735
9.63153,510
9.63725,716
9.64298,565
9.6487,614
9.65442,760
9.66015,707
9.66587,682
9.67158,564
9.67732,845
9.68303,684
9.68875,557
9.69448,655
9.7002,658
9.70592,706
9.71165,525
9.71737,531
9.72308,981
9.72882,1279
9.73453,1690
9.74025,1663
9.74598,2147
9.7517,2002
9.75742,1034
9.76313,557
9.76887,439
9.77458,497
9.7803,546
9.78603,895
9.79175,317
9.79747,419
9.8032,967
9.80892,394
9.81463,828
9.82037,827
9.82608,722
9.8318,446
9.83753,696
9.84325,577
9.84897,521
9.8547,748
9.86042,620
9.86613,684
9.87187,579
9.87758,688
9.8833,779
9.88902,573
9.89475,620
9.90047,738
9.90618,478
9.91192,464
9.91763,802
9.92335,510
9.92908,469
9.9348,452
9.94052,712
9.94625,722
9.95197,674
9.95768,687
9.96342,441
9.96913,439
9.97485,476
9.98058,274
9.9863,639
9.99202,768
9.99775,503
10.0035,698
10.0092,422
10.0149,608
10.0206,751
10.0264,752
10.0321,630
10.0378,666
10.0435,564
10.0492,526
10.055,417
10.0607,464
10.0664,463
10.0721,569
10.0779,569
10.0836,408
10.0893,615
10.095,561
10.1007,0
10.1065,500
10.1122,746
10.1179,431
10.1236,650
10.1294,454
10.1351,505
10.1408,352
10.1465,587
10.1522,455
10.158,227
10.1637,572
10.1694,258
10.1751,484
10.1809,677
10.1866,384
10.1923,673
10.198,723
10.2037,454
10.2095,439
10.2152,713
10.2209,587
10.2266,380
10.2324,469
10.2381,231
10.2438,652
10.2495,380
10.2552,363
10.261,1497
10.2667,1765
10.2724,1772
10.2781,2771
10.2838,2126
10.2896,1786
10.2953,959
10.301,1210
10.3067,957
10.3125,950
10.3182,630
10.3239,489
10.3296,913
10.3353,469
10.3411,842
10.3468,910
10.3525,902
10.3582,476
10.364,325
10.3697,644
10.3754,547
10.3811,694
10.3868,480
10.3926,439
10.3983,475
10.404,855
10.4097,519
10.4155,327
10.4212,509
10.4269,660
10.4326,575
10.4383,788
10.4441,631
10.4498,205
10.4555,608
10.4612,538
10.467,829
10.4727,355
10.4784,717
10.4841,429
10.4898,253
10.4956,814
10.5013,621
10.507,335
10.5127,449
10.5184,422
10.5242,252
10.5299,456
10.5356,190
10.5413,337
10.5471,378
10.5528,602
10.5585,713
10.5642,966
10.5699,1159
10.5757,1334
10.5814,1987
10.5871,1058
10.5928,986
10.5986,1157
10.6043,352
10.61,766
10.6157,526
10.6214,235
10.6272,513
10.6329,534
10.6386,337
10.6443,438
10.6501,555
10.6558,844
10.6615,1008
10.6672,1106
10.6729,598
10.6787,571
10.6844,659
10.6901,448
10.6958,778
10.7016,598
10.7073,446
10.713,824
10.7187,655
10.7244,428
10.7302,190
10.7359,372
10.7416,376
10.7473,461
10.7531,603
10.7588,461
10.7645,495
10.7702,631
10.7759,215
10.7817,512
10.7874,610
10.7931,570
10.7988,457
10.8045,757
10.8103,326
10.816,557
10.8217,648
10.8274,601
10.8332,439
10.8389,968
10.8446,1854
10.8503,4146
10.856,5723
10.8618,6282
10.8675,6037
10.8732,4448
10.8789,3644
10.8847,2889
10.8904,2037
10.8961,1658
10.9018,1458
10.9075,851
10.9133,767
10.919,819
10.9247,373
10.9304,329
10.9362,724
10.9419,824
10.9476,507
10.9533,601
10.959,592
10.9648,853
10.9705,1639
10.9762,1138
10.9819,1296
10.9877,451
10.9934,655
10.9991,389
11.0048,602
11.0105,525
11.0163,472
11.022,471
11.0277,206
11.0334,380
11.0391,624
11.0449,323
11.0506,769
11.0563,246
11.062,388
11.0678,498
11.0735,199
11.0792,529
11.0849,383
11.0906,502
11.0964,568
11.1021,737
11.1078,432
11.1135,346
11.1193,1184
11.125,2598
11.1307,8773
11.1364,15216
11.1421,17790
11.1479,16798
11.1536,11866
11.1593,4540
11.165,2197
11.1708,929
11.1765,517
11.1822,668
11.1879,430
11.1936,484
11.1994,554
11.2051,0
11.2108,523
11.2165,635
11.2223,341
11.228,287
11.2337,400
11.2394,704
11.2451,394
11.2509,626
11.2566,660
11.2623,581
11.268,558
11.2738,464
11.2795,632
11.2852,218
11.2909,372
11.2966,449
11.3024,396
11.3081,338
11.3138,415
11.3195,388
11.3252,543
11.331,237
11.3367,704
11.3424,668
11.3481,821
11.3539,793
11.3596,821
11.3653,642
11.371,541
11.3767,255
11.3825,452
11.3882,265
11.3939,552
11.3996,389
11.4054,354
11.4111,903
11.4168,580
11.4225,189
11.4282,447
11.434,389
11.4397,1135
11.4454,1096
11.4511,912
11.4569,1263
11.4626,1188
11.4683,542
11.474,712
11.4797,598
11.4855,548
11.4912,613
11.4969,221
11.5026,707
11.5084,664
11.5141,256
11.5198,448
11.5255,626
11.5312,256
11.537,644
11.5427,582
11.5484,831
11.5541,262
11.5598,701
11.5656,521
11.5713,754
11.577,339
11.5827,478
11.5885,539
11.5942,197
11.5999,815
11.6056,433
11.6113,646
11.6171,420
11.6228,479
11.6285,472
11.6342,176
11.64,471
11.6457,365
11.6514,360
11.6571,389
11.6628,401
11.6686,588
11.6743,409
11.68,519
11.6857,389
11.6915,750
11.6972,339
11.7029,174
11.7086,530
11.7143,897
11.7201,172
11.7258,246
11.7315,172
11.7372,510
11.743,308
11.7487,375
11.7544,374
11.7601,494
11.7658,358
11.7716,882
11.7773,212
11.783,477
11.7887,573
11.7944,432
11.8002,832
11.8059,395
11.8116,462
11.8173,564
11.8231,401
11.8288,203
11.8345,434
11.8402,404
11.8459,305
11.8517,645
11.8574,749
11.8631,541
11.8688,613
11.8746,556
11.8803,439
11.886,440
11.8917,399
11.8974,183
11.9032,552
11.9089,419
11.9146,160
11.9203,419
11.9261,340
11.9318,271
11.9375,220
11.9432,477
11.9489,624
11.9547,548
11.9604,401
11.9661,364
11.9718,0
11.9776,582
11.9833,460
11.989,402
11.9947,468
12.0004,175
12.0062,388
12.0119,553
12.0176,696
12.0233,174
12.0291,413
12.0348,385
12.0405,347
12.0462,392
12.0519,706
12.0577,571
12.0634,177
12.0691,212
12.0748,762
12.0805,166
12.0863,565
12.092,362
12.0977,374
12.1034,574
12.1092,429
12.1149,422
12.1206,308
12.1263,210
12.132,374
12.1378,319
12.1435,609
12.1492,773
12.1549,623
12.1607,415
12.1664,397
12.1721,477
12.1778,0
12.1835,373
12.1893,0
12.195,904
12.2007,404
12.2064,452
12.2122,262
12.2179,565
12.2236,272
12.2293,0
12.235,282
12.2408,456
12.2465,611
12.2522,389
12.2579,426
12.2637,664
12.2694,612
12.2751,528
12.2808,410
12.2865,562
12.2923,377
12.298,372
12.3037,493
12.3094,567
12.3151,0
12.3209,0
12.3266,420
12.3323,270
12.338,387
12.3438,352
12.3495,185
12.3552,308
12.3609,598
12.3666,882
12.3724,224
12.3781,0
12.3838,281
12.3895,207
12.3953,539
12.401,433
12.4067,152
12.4124,539
12.4181,363
12.4239,638
12.4296,372
12.4353,187
12.441,196
12.4468,449
12.4525,200
12.4582,174
12.4639,415
12.4696,354
12.4754,419
12.4811,371
12.4868,189
12.4925,349
12.4983,420
12.504,551
12.5097,576
12.5154,428
12.5211,420
12.5269,408
12.5326,433
12.5383,406
12.544,569
12.5497,499
12.5555,194
12.5612,550
12.5669,235
12.5726,518
12.5784,377
12.5841,709
12.5898,343
12.5955,0
12.6012,176
12.607,169
12.6127,474
12.6184,189
12.6241,538
12.6299,151
12.6356,316
12.6413,0
12.647,307
12.6527,178
12.6585,753
12.6642,888
12.6699,773
12.6756,403
12.6814,177
12.6871,505
12.6928,160
12.6985,572
12.7042,586
12.71,750
12.7157,1313
12.7214,993
12.7271,405
12.7329,0
12.7386,580
12.7443,410
12.75,0
12.7557,443
12.7615,240
12.7672,160
12.7729,477
12.7786,653
12.7844,206
12.7901,344
12.7958,336
12.8015,287
12.8072,190
12.813,348
12.8187,388
12.8244,198
12.8301,644
12.8358,369
12.8416,366
12.8473,669
12.853,232
12.8587,578
12.8645,668
12.8702,258
12.8759,619
12.8816,240
12.8873,636
12.8931,150
12.8988,178
12.9045,219
12.9102,0
12.916,223
12.9217,393
12.9274,340
12.9331,471
12.9388,1062
12.9446,3420
12.9503,8569
12.956,11685
12.9617,12603
12.9675,8276
12.9732,4882
12.9789,1761
12.9846,822
12.9903,431
12.9961,228
13.0018,399
13.0075,330
13.0132,643
13.019,819
13.0247,221
13.0304,0
13.0361,675
13.0418,507
13.0476,0
13.0533,513
13.059,698
13.0647,367
13.0704,235
13.0762,466
13.0819,388
13.0876,177
13.0933,417
13.0991,174
13.1048,489
13.1105,681
13.1162,1013
13.1219,1153
13.1277,800
13.1334,555
13.1391,666
13.1448,235
13.1506,461
13.1563,324
13.162,0
13.1677,445
13.1734,809
13.1792,643
13.1849,773
13.1906,401
13.1963,503
13.2021,728
13.2078,994
13.2135,856
13.2192,402
13.2249,766
13.2307,354
13.2364,840
13.2421,1000
13.2478,512
13.2536,380
13.2593,406
13.265,451
13.2707,250
13.2764,490
13.2822,442
13.2879,679
13.2936,461
13.2993,708
13.305,412
13.3108,236
13.3165,724
13.3222,491
13.3279,0
13.3337,151
13.3394,437
13.3451,162
13.3508,0
13.3565,578
13.3623,470
13.368,646
13.3737,195
13.3794,181
13.3852,448
13.3909,376
13.3966,179
13.4023,693
13.408,715
13.4138,466
13.4195,598
13.4252,572
13.4309,333
13.4367,487
13.4424,699
13.4481,578
13.4538,189
13.4595,348
13.4653,386
13.471,718
13.4767,544
13.4824,177
13.4882,692
13.4939,400
13.4996,346
13.5053,650
13.511,288
13.5168,155
13.5225,377
13.5282,493
13.5339,379
13.5397,252
13.5454,454
13.5511,0
13.5568,159
13.5625,238
13.5683,525
13.574,382
13.5797,0
13.5854,196
13.5911,699
13.5969,187
13.6026,312
13.6083,350
13.614,165
13.6198,240
13.6255,354
13.6312,676
13.6369,1042
13.6426,694
13.6484,1174
13.6541,1177
13.6598,390
13.6655,177
13.6713,204
13.677,415
13.6827,533
13.6884,0
13.6941,457
13.6999,311
13.7056,371
13.7113,175
13.717,0
13.7228,323
13.7285,422
13.7342,209
13.7399,449
13.7456,610
13.7514,892
13.7571,231
13.7628,524
13.7685,175
13.7743,166
13.78,186
13.7857,253
13.7914,164
13.7971,437
13.8029,643
13.8086,627
13.8143,165
13.82,383
13.8257,688
13.8315,217
13.8372,430
13.8429,574
13.8486,399
13.8544,585
13.8601,722
13.8658,604
13.8715,455
13.8772,175
13.883,363
13.8887,189
13.8944,0
13.9001,323
13.9059,575
13.9116,417
13.9173,362
13.923,188
13.9287,414
13.9345,160
13.9402,252
13.9459,176
13.9516,408
13.9574,498
13.9631,171
13.9688,0
13.9745,0
13.9802,230
13.986,338
13.9917,0
13.9974,194
14.0031,444
14.0089,178
14.0146,424
14.0203,372
14.026,163
14.0317,296
14.0375,521
14.0432,377
14.0489,236
14.0546,234
14.0603,579
14.0661,506
14.0718,581
14.0775,385
14.0832,559
14.089,413
14.0947,517
14.1004,378
14.1061,223
14.1118,565
14.1176,360
14.1233,569
14.129,387
14.1347,252
14.1405,158
14.1462,0
14.1519,162
14.1576,228
14.1633,487
14.1691,440
14.1748,554
14.1805,789
14.1862,326
14.192,152
14.1977,373
14.2034,220
14.2091,186
14.2148,0
14.2206,469
14.2263,375
14.232,386
14.2377,635
14.2435,198
14.2492,639
14.2549,379
14.2606,427
14.2663,440
14.2721,195
14.2778,484
14.2835,606
14.2892,377
14.295,513
14.3007,519
14.3064,0
14.3121,719
14.3178,202
14.3236,547
14.3293,455
14.335,436
14.3407,368
14.3464,410
14.3522,161
14.3579,179
14.3636,305
14.3693,575
14.3751,730
14.3808,398
14.3865,420
14.3922,170
14.3979,311
14.4037,0
14.4094,581
14.4151,364
14.4208,191
14.4266,190
14.4323,159
14.438,556
14.4437,183
14.4494,167
14.4552,399
14.4609,212
14.4666,477
14.4723,500
14.4781,230
14.4838,419
14.4895,236
14.4952,556
14.5009,787
14.5067,1462
14.5124,4230
14.5181,6733
14.5238,6513
14.5296,5787
14.5353,2831
14.541,1486
14.5467,284
14.5524,331
14.5582,238
14.5639,482
14.5696,710
14.5753,186
14.581,389
14.5868,0
14.5925,0
14.5982,419
14.6039,223
14.6097,417
14.6154,599
14.6211,611
14.6268,223
14.6325,448
14.6383,239
14.644,266
14.6497,361
14.6554,151
14.6612,592
14.6669,472
14.6726,614
14.6783,641
14.684,452
14.6898,211
14.6955,357
14.7012,196
14.7069,680
14.7127,520
14.7184,186
14.7241,181
14.7298,464
14.7355,572
14.7413,345
14.747,234
14.7527,355
14.7584,360
14.7642,0
14.7699,369
14.7756,422
14.7813,197
14.787,392
14.7928,536
14.7985,372
14.8042,179
14.8099,524
14.8157,502
14.8214,165
14.8271,345
14.8328,313
14.8385,0
14.8443,242
14.85,337
14.8557,614
14.8614,659
14.8671,171
14.8729,0
14.8786,227
14.8843,203
14.89,552
14.8958,0
14.9015,0
14.9072,167
14.9129,378
14.9186,366
14.9244,233
14.9301,204
14.9358,432
14.9415,465
14.9473,443
14.953,604
14.9587,369
14.9644,355
14.9701,189
14.9759,514
14.9816,223
14.9873,251
14.993,398
14.9988,605
15.0045,430
15.0102,391
15.0159,351
15.0216,0
15.0274,600
15.0331,161
15.0388,287
15.0445,365
15.0503,213
15.056,184
15.0617,416
15.0674,252
15.0731,0
15.0789,313
15.0846,759
15.0903,502
15.096,628
15.1017,332
15.1075,641
15.1132,0
15.1189,321
15.1246,238
15.1304,443
15.1361,415
15.1418,278
15.1475,205
15.1532,193
15.159,442
15.1647,428
15.1704,363
15.1761,464
15.1819,751
15.1876,522
15.1933,0
15.199,199
15.2047,0
15.2105,342
15.2162,263
15.2219,311
15.2276,409
15.2334,465
15.2391,0
15.2448,381
15.2505,0
15.2562,625
15.262,794
15.2677,485
15.2734,151
15.2791,441
15.2849,578
15.2906,217
15.2963,546
15.302,0
15.3077,209
15.3135,570
15.3192,431
15.3249,721
15.3306,345
15.3363,309
15.3421,154
15.3478,823
15.3535,750
15.3592,0
15.365,401
15.3707,360
15.3764,377
15.3821,576
15.3878,327
15.3936,464
15.3993,331
15.405,451
15.4107,166
15.4165,159
15.4222,723
15.4279,425
15.4336,479
15.4393,224
15.4451,461
15.4508,407
15.4565,692
15.4622,201
15.468,569
15.4737,462
15.4794,440
15.4851,385
15.4908,538
15.4966,405
15.5023,326
15.508,433
15.5137,554
15.5195,166
15.5252,318
15.5309,323
15.5366,733
15.5423,199
15.5481,413
15.5538,379
15.5595,449
15.5652,379
15.571,336
15.5767,0
15.5824,582
15.5881,218
15.5938,608
15.5996,316
15.6053,649
15.611,360
15.6167,1377
15.6224,726
15.6282,630
15.6339,792
15.6396,346
15.6453,705
15.6511,359
15.6568,287
15.6625,201
15.6682,713
15.6739,377
15.6797,183
15.6854,537
15.6911,601
15.6968,373
15.7026,523
15.7083,430
15.714,714
15.7197,738
15.7254,451
15.7312,481
15.7369,823
15.7426,451
15.7483,512
15.7541,399
15.7598,705
15.7655,1065
15.7712,713
15.7769,1008
15.7827,500
15.7884,343
15.7941,216
15.7998,479
15.8056,460
15.8113,182
15.817,361
15.8227,549
15.8284,461
15.8342,548
15.8399,463
15.8456,421
15.8513,199
15.857,676
15.8628,459
15.8685,152
15.8742,416
15.8799,705
15.8857,618
15.8914,826
15.8971,404
15.9028,1015
15.9085,1749
15.9143,2003
15.92,3230
15.9257,3349
15.9314,2927
15.9372,2306
15.9429,1257
15.9486,763
15.9543,782
15.96,273
15.9658,484
15.9715,733
15.9772,647
15.9829,549
15.9887,429
15.9944,616
16.0001,699
16.0058,428
16.0115,750
16.0173,650
16.023,574
16.0287,391
16.0344,421
16.0402,940
16.0459,939
16.0516,523
16.0573,371
16.063,801
16.0688,487
16.0745,374
16.0802,491
16.0859,626
16.0916,801
16.0974,671
16.1031,366
16.1088,534
16.1145,427
16.1202,0
16.126,632
16.1317,942
16.1374,633
16.1431,702
16.1489,816
16.1546,710
16.1603,475
16.166,499
16.1717,438
16.1775,655
16.1832,508
16.1889,405
16.1946,266
16.2004,241
16.2061,522
16.2118,436
16.2175,821
16.2233,290
16.229,420
16.2347,382
16.2404,448
16.2461,166
16.2519,537
16.2576,798
16.2633,657
16.269,725
16.2748,698
16.2805,828
16.2862,641
16.2919,511
16.2976,418
16.3033,731
16.3091,773
16.3148,731
16.3205,585
16.3263,523
16.332,616
16.3377,585
16.3434,820
16.3491,471
16.3548,454
16.3606,742
16.3663,799
16.372,501
16.3777,554
16.3835,211
16.3892,529
16.3949,718
16.4006,711
16.4064,685
16.4121,615
16.4178,959
16.4235,590
16.4292,613
16.435,489
16.4407,522
16.4464,699
16.4521,592
16.4579,450
16.4636,809
16.4693,792
16.475,649
16.4807,460
16.4865,582
16.4922,885
16.4979,784
16.5036,492
16.5094,551
16.5151,791
16.5208,589
16.5265,611
16.5322,530
16.5379,780
16.5437,571
16.5494,527
16.5551,804
16.5608,788
16.5666,757
16.5723,564
16.578,414
16.5837,729
16.5894,645
16.5952,595
16.6009,790
16.6066,881
16.6123,763
16.6181,527
16.6238,954
16.6295,1100
16.6352,1014
16.641,739
16.6467,302
16.6524,673
16.6581,561
16.6638,837
16.6696,379
16.6753,457
16.681,417
16.6867,907
16.6925,686
16.6982,820
16.7039,943
16.7096,791
16.7153,816
16.7211,650
16.7268,584
16.7325,606
16.7382,1194
16.744,723
16.7497,722
16.7554,1214
16.7611,582
16.7668,675
16.7725,442
16.7783,831
16.784,580
16.7897,833
16.7954,782
16.8012,799
16.8069,953
16.8126,670
16.8183,929
16.8241,763
16.8298,891
16.8355,476
16.8412,816
16.8469,950
16.8527,686
16.8584,834
16.8641,646
16.8698,946
16.8756,865
16.8813,724
16.887,691
16.8927,909
16.8984,970
16.9042,720
16.9099,1025
16.9156,654
16.9213,1031
16.9271,535
16.9328,531
16.9385,1007
16.9442,825
16.9499,568
16.9557,907
16.9614,914
16.9671,612
16.9728,1046
16.9785,881
16.9843,676
16.99,1270
16.9957,1051
17.0014,598
17.0071,586
17.0129,796
17.0186,559
17.0243,877
17.03,606
17.0358,736
17.0415,934
17.0472,704
17.0529,664
17.0587,1074
17.0644,1306
17.0701,740
17.0758,841
17.0816,1061
17.0873,734
17.093,816
17.0987,682
17.1044,761
17.1102,930
17.1159,712
17.1216,831
17.1273,816
17.133,1134
17.1388,895
17.1445,1219
17.1502,1136
17.1559,925
17.1617,988
17.1674,783
17.1731,1205
17.1788,1008
17.1845,1144
17.1903,1400
17.196,2679
17.2017,3065
17.2074,3635
17.2131,3154
17.2189,1880
17.2246,1461
17.2303,1708
17.236,1435
17.2418,1232
17.2475,1386
17.2532,1058
17.2589,1194
17.2647,998
17.2704,1401
17.2761,858
17.2818,1203
17.2875,756
17.2933,877
17.299,1465
17.3047,817
17.3104,843
17.3162,1186
17.3219,1064
17.3276,692
17.3333,1132
17.339,1154
17.3448,953
17.3505,982
17.3562,1028
17.3619,1061
17.3676,1176
17.3734,927
17.3791,1347
17.3848,1165
17.3905,692
17.3962,1364
17.402,729
17.4077,967
17.4134,1087
17.4191,823
17.4249,789
17.4306,1043
17.4363,1063
17.442,1570
17.4477,1092
17.4535,1473
17.4592,1082
17.4649,1212
17.4706,1253
17.4764,1085
17.4821,583
17.4878,1339
17.4935,1159
17.4993,1460
17.505,931
17.5107,692
17.5164,1441
17.5221,1209
17.5279,1384
17.5336,1434
17.5393,1024
17.545,1012
17.5508,1040
17.5565,1611
17.5622,1565
17.5679,1292
17.5736,938
17.5794,1417
17.5851,1211
17.5908,1718
17.5965,1123
17.6022,1267
17.608,1239
17.6137,1176
17.6194,1331
17.6251,1405
17.6309,1543
17.6366,1168
17.6423,1422
17.648,1595
17.6537,1083
17.6595,724
17.6652,1663
17.6709,1382
17.6766,1199
17.6824,1237
17.6881,1940
17.6938,1359
17.6995,1266
17.7052,1357
17.711,1385
17.7167,1122
17.7224,1640
17.7281,1208
17.7339,1365
17.7396,1453
17.7453,1326
17.751,1081
17.7567,1366
17.7625,1393
17.7682,1294
17.7739,1324
17.7796,1925
17.7854,1250
17.7911,1048
17.7968,1097
17.8025,1217
17.8082,1525
17.814,1470
17.8197,1505
17.8254,1590
17.8311,1186
17.8369,1224
17.8426,1615
17.8483,1656
17.854,1453
17.8597,1340
17.8654,1259
17.8712,1588
17.8769,993
17.8826,1593
17.8883,1154
17.8941,1615
17.8998,1372
17.9055,1882
17.9112,2874
17.917,3238
17.9227,2529
17.9284,2425
17.9341,2193
17.9398,1752
17.9456,1565
17.9513,1599
17.957,1659
17.9627,1620
17.9685,1872
17.9742,1422
17.9799,1618
17.9856,1553
17.9913,1681
17.9971,1967
18.0028,1800
18.0085,1606
18.0142,1520
18.02,1684
18.0257,1320
18.0314,1425
18.0371,1933
18.0428,1904
18.0486,1533
18.0543,1842
18.06,1150
18.0657,839
18.0715,1543
18.0772,1565
18.0829,1057
18.0886,1369
18.0943,1314
18.1001,1741
18.1058,1899
18.1115,1545
18.1172,1948
18.1229,1588
18.1287,1690
18.1344,1681
18.1401,1298
18.1458,1841
18.1516,2042
18.1573,2168
18.163,1933
18.1687,1703
18.1744,1773
18.1802,1867
18.1859,2088
18.1916,1709
18.1973,2290
18.2031,1916
18.2088,1782
18.2145,1597
18.2202,2162
18.2259,1840
18.2317,1693
18.2374,1737
18.2431,2062
18.2488,2561
18.2546,2189
18.2603,1924
18.266,2026
18.2717,1801
18.2774,1472
18.2831,1697
18.2889,1930
18.2946,2340
18.3003,1582
18.3061,2064
18.3118,2027
18.3175,1841
18.3232,2028
18.3289,2492
18.3347,1692
18.3404,2352
18.3461,2447
18.3518,2117
18.3575,3216
18.3633,4461
18.369,4654
18.3747,4763
18.3804,4518
18.3862,2626
18.3919,3037
18.3976,2373
18.4033,2728
18.409,1956
18.4148,2219
18.4205,2581
18.4262,2521
18.4319,2870
18.4377,1896
18.4434,1853
18.4491,2802
18.4548,1698
18.4605,2404
18.4663,2494
18.472,1866
18.4777,1897
18.4834,2734
18.4892,2727
18.4949,2979
18.5006,2456
18.5063,2131
18.512,2015
18.5177,2362
18.5235,2609
18.5292,2839
18.5349,2399
18.5406,2558
18.5464,2209
18.5521,2515
18.5578,2351
18.5635,2559
18.5693,2661
18.575,2874
18.5807,2423
18.5864,2096
18.5922,2468
18.5979,2134
18.6036,2233
18.6093,2543
18.615,2563
18.6208,2701
18.6265,2369
18.6322,2321
18.6379,2869
18.6436,2416
18.6494,2879
18.6551,3020
18.6608,3265
18.6665,2920
18.6723,2278
18.678,2589
18.6837,2617
18.6894,3051
18.6951,3057
18.7009,2676
18.7066,2468
18.7123,2452
18.718,3102
18.7238,2876
18.7295,4663
18.7352,8569
18.7409,16796
18.7466,24542
18.7524,25007
18.7581,23454
18.7638,13739
18.7695,8360
18.7753,4771
18.781,3503
18.7867,3549
18.7924,3496
18.7981,3592
18.8039,3744
18.8096,3525
18.8153,3646
18.821,3502
18.8268,3859
18.8325,2538
18.8382,2731
18.8439,3498
18.8496,3225
18.8554,3333
18.8611,3057
18.8668,3535
18.8725,3360
18.8782,3420
18.884,2418
18.8897,2960
18.8954,3033
18.9011,3583
18.9069,3042
18.9126,2735
18.9183,3106
18.924,2876
18.9297,3372
18.9355,3866
18.9412,3337
18.9469,3640
18.9526,3170
18.9583,3108
18.9641,3929
18.9698,3610
18.9755,2806
18.9812,3506
18.987,2996
18.9927,3477
18.9984,3537
19.0041,3480
19.0099,3723
19.0156,3306
19.0213,3743
19.027,2779
19.0327,3917
19.0385,3747
19.0442,4111
19.0499,4476
19.0556,3516
19.0614,3336
19.0671,3945
19.0728,2821
19.0785,4580
19.0842,3371
19.09,3458
19.0957,4080
19.1014,3429
19.1071,4031
19.1129,3908
19.1186,3732
19.1243,3765
19.13,3947
19.1357,4114
19.1415,3859
19.1472,3575
19.1529,3819
19.1586,3686
19.1643,4418
19.1701,3624
19.1758,4431
19.1815,3932
19.1872,3285
19.193,4196
19.1987,4260
19.2044,3309
19.2101,3915
19.2158,4111
19.2216,3678
19.2273,3793
19.233,3584
19.2387,4097
19.2445,3568
19.2502,3600
19.2559,4422
19.2616,4270
19.2673,3393
19.2731,4310
19.2788,4096
19.2845,3608
19.2902,4119
19.296,3568
19.3017,4377
19.3074,4314
19.3131,4336
19.3188,3590
19.3246,3336
19.3303,3516
19.336,4506
19.3417,4540
19.3475,3919
19.3532,4113
19.3589,3541
19.3646,4307
19.3703,4341
19.376,5142
19.3818,4699
19.3875,5006
19.3932,4505
19.3989,5011
19.4047,4486
19.4104,3854
19.4161,4503
19.4218,5048
19.4276,4748
19.4333,7133
19.439,6405
19.4447,7055
19.4504,5961
19.4562,5543
19.4619,5658
19.4676,4832
19.4733,4302
19.4791,4610
19.4848,4804
19.4905,5337
19.4962,4721
19.5019,5094
19.5077,5615
19.5134,5550
19.5191,5639
19.5248,4623
19.5306,4876
19.5363,4568
19.542,4996
19.5477,4396
19.5534,4871
19.5592,5357
19.5649,4951
19.5706,4723
19.5763,5066
19.5821,4895
19.5878,5509
19.5935,4963
19.5992,4721
19.6049,5909
19.6107,5584
19.6164,5387
19.6221,5316
19.6278,5202
19.6335,5427
19.6393,5579
19.645,6283
19.6507,6622
19.6564,5015
19.6622,4913
19.6679,5462
19.6736,5136
19.6793,4787
19.685,5231
19.6908,5790
19.6965,6055
19.7022,5365
19.7079,6063
19.7137,6054
19.7194,6290
19.7251,5626
19.7308,5769
19.7365,5018
19.7423,5725
19.748,5755
19.7537,6015
19.7594,5368
19.7652,5962
19.7709,5617
19.7766,5611
19.7823,4970
19.788,5943
19.7937,5016
19.7995,5852
19.8052,6305
19.8109,6959
19.8166,6825
19.8224,6092
19.8281,5600
19.8338,5711
19.8395,6621
19.8453,6878
19.851,6376
19.8567,5919
19.8624,6232
19.8682,6682
19.8739,5999
19.8796,6966
19.8853,5483
19.891,5955
19.8968,6757
19.9025,6258
19.9082,7026
19.9139,5798
19.9196,6505
19.9254,6200
19.9311,7085
19.9368,6654
19.9425,6952
19.9483,6532
19.954,6749
19.9597,6209
19.9654,6052
19.9711,6086
19.9769,7441
19.9826,6835
19.9883,6143
19.994,6357
19.9998,6588
20.0055,7141
20.0112,5866
20.0169,7581
20.0226,8089
20.0284,7517
20.0341,7069
20.0398,6432
20.0455,6923
20.0513,6087
20.057,6399
20.0627,6144
20.0684,6666
20.0741,7718
20.0799,6994
20.0856,7774
20.0913,7761
20.097,6915
20.1028,6652
20.1085,7119
20.1142,7803
20.1199,7917
20.1256,7981
20.1314,7567
20.1371,7083
20.1428,7416
20.1485,7601
20.1542,8053
20.16,6810
20.1657,7936
20.1714,7512
20.1771,7725
20.1829,8548
20.1886,6879
20.1943,7170
20.2,7332
20.2057,7447
20.2115,7855
20.2172,9037
20.2229,7232
20.2286,9167
20.2344,8559
20.2401,8058
20.2458,7473
20.2515,8771
20.2572,8225
20.263,8514
20.2687,8559
20.2744,8026
20.2801,8567
20.2859,8048
20.2916,8107
20.2973,7717
20.303,8210
20.3087,7878
20.3145,8466
20.3202,9351
20.3259,7497
20.3316,8037
20.3374,7550
20.3431,8779
20.3488,9185
20.3545,8896
20.3602,9043
20.366,9465
20.3717,8383
20.3774,7872
20.3831,9516
20.3888,9539
20.3946,9329
20.4003,8059
20.406,8765
20.4117,8365
20.4175,9553
20.4232,9019
20.4289,10638
20.4346,10295
20.4403,11230
20.4461,11260
20.4518,10216
20.4575,10429
20.4632,9774
20.469,9987
20.4747,9532
20.4804,9253
20.4861,9575
20.4918,9181
20.4976,10474
20.5033,9087
20.509,9541
20.5147,9576
20.5205,9861
20.5262,9245
20.5319,9210
20.5376,9989
20.5433,10789
20.5491,10614
20.5548,9955
20.5605,9396
20.5662,10028
20.572,9337
20.5777,10836
20.5834,9817
20.5891,10506
20.5948,9884
20.6006,10794
20.6063,10727
20.612,10430
20.6177,11525
20.6235,10246
20.6292,10096
20.6349,10022
20.6406,10089
20.6463,11315
20.6521,9832
20.6578,11552
20.6635,11142
20.6692,9667
20.6749,10537
20.6807,11713
20.6864,11596
20.6921,11222
20.6978,10157
20.7036,10315
20.7093,10560
20.715,11084
20.7207,10005
20.7264,11576
20.7322,11855
20.7379,11325
20.7436,10369
20.7493,12367
20.7551,12041
20.7608,11439
20.7665,12862
20.7722,12286
20.7779,11035
20.7837,11524
20.7894,11498
20.7951,13156
20.8008,11265
20.8066,13625
20.8123,11596
20.818,10989
20.8237,11955
20.8294,12756
20.8352,12248
20.8409,10891
20.8466,11626
20.8523,14001
20.8581,12129
20.8638,13315
20.8695,12528
20.8752,12858
20.8809,13097
20.8866,12377
20.8924,12529
20.8981,12798
20.9038,13139
20.9095,12338
20.9153,13660
20.921,13075
20.9267,12894
20.9324,13371
20.9382,11918
20.9439,13548
20.9496,12771
20.9553,14098
20.961,13557
20.9668,13376
20.9725,13208
20.9782,13741
20.9839,14366
20.9897,14616
20.9954,12970
21.0011,14140
21.0068,13653
21.0125,13973
21.0183,14530
21.024,13569
21.0297,13712
21.0354,15259
21.0412,14501
21.0469,15544
21.0526,14145
21.0583,12986
21.064,15691
21.0698,14254
21.0755,14064
21.0812,15490
21.0869,14412
21.0927,14046
21.0984,15543
21.1041,14091
21.1098,15884
21.1155,15548
21.1213,13647
21.127,15009
21.1327,15423
21.1384,14945
21.1441,13773
21.1499,14799
21.1556,15239
21.1613,16874
21.167,14732
21.1728,16187
21.1785,15649
21.1842,15411
21.1899,16350
21.1956,15839
21.2014,16422
21.2071,16188
21.2128,16974
21.2185,15360
21.2243,16588
21.23,16124
21.2357,16715
21.2414,16765
21.2471,16504
21.2529,16457
21.2586,17460
21.2643,16325
21.27,18085
21.2758,16870
21.2815,17570
21.2872,17496
21.2929,17618
21.2986,16441
21.3043,18016
21.3101,16856
21.3158,17790
21.3215,18454
21.3272,17282
21.333,17230
21.3387,18189
21.3444,17270
21.3501,17479
21.3559,17208
21.3616,17142
21.3673,18183
21.373,20291
21.3788,19225
21.3845,18476
21.3902,21665
21.3959,19684
21.4016,21127
21.4074,20117
21.4131,16936
21.4188,18091
21.4245,17365
21.4302,18802
21.436,19137
21.4417,18832
21.4474,19776
21.4531,18404
21.4589,19567
21.4646,19132
21.4703,19012
21.476,19725
21.4817,18854
21.4875,18635
21.4932,18960
21.4989,19436
21.5046,20851
21.5104,19707
21.5161,20823
21.5218,20504
21.5275,19780
21.5332,19748
21.539,18925
21.5447,20183
21.5504,21494
21.5561,21091
21.5619,19349
21.5676,19529
21.5733,20323
21.579,20968
21.5847,21711
21.5905,20562
21.5962,20782
21.6019,20312
21.6076,20472
21.6134,21084
21.6191,23384
21.6248,21794
21.6305,20091
21.6362,23035
21.642,22336
21.6477,22233
21.6534,19970
21.6591,21917
21.6648,22474
21.6706,21754
21.6763,22156
21.682,23530
21.6877,21843
21.6935,20352
21.6992,22433
21.7049,22303
21.7106,21691
21.7163,20479
21.7221,24365
21.7278,22151
21.7335,21869
21.7392,23565
21.7449,22696
21.7507,23369
21.7564,22647
21.7621,23255
21.7678,22644
21.7736,23145
21.7793,23919
21.785,23657
21.7907,20572
21.7965,23353
21.8022,24923
21.8079,24552
21.8136,23636
21.8193,22821
21.8251,22412
21.8308,25629
21.8365,24690
21.8422,25290
21.848,22923
21.8537,23619
21.8594,25279
21.8651,25328
21.8708,24824
21.8766,24512
21.8823,24296
21.888,25779
21.8937,24730
21.8994,24935
21.9052,27678
21.9109,26311
21.9166,26410
21.9223,26387
21.9281,26902
21.9338,26395
21.9395,25663
21.9452,26710
21.9509,27302
21.9567,25945
21.9624,26878
21.9681,24937
21.9738,25544
21.9796,25727
21.9853,25167
21.991,25731
21.9967,27968
22.0024,28972
22.0082,28515
22.0139,26824
22.0196,27965
22.0253,27922
22.0311,27181
22.0368,28298
22.0425,32273
22.0482,37638
22.0539,40960
22.0597,42022
22.0654,40981
22.0711,35135
22.0768,30851
22.0826,30326
22.0883,28928
22.094,27979
22.0997,30528
22.1054,27830
22.1112,28555
22.1169,29576
22.1226,29612
22.1283,29226
22.1341,29465
22.1398,30197
22.1455,30458
22.1512,30133
22.1569,30505
22.1626,28054
22.1684,31234
22.1741,29330
22.1798,30052
22.1855,28453
22.1913,30813
22.197,31607
22.2027,29502
22.2084,29847
22.2142,28954
22.2199,29657
22.2256,30537
22.2313,32559
22.237,30900
22.2428,31813
22.2485,32250
22.2542,31199
22.2599,32136
22.2657,32856
22.2714,33114
22.2771,32871
22.2828,30705
22.2885,33291
22.2943,31416
22.3,32643
22.3057,30688
22.3114,33718
22.3172,30510
22.3229,31451
22.3286,32160
22.3343,32756
22.34,33765
22.3458,33448
22.3515,34147
22.3572,32377
22.3629,30700
22.3687,31631
22.3744,33248
22.3801,32588
22.3858,32858
22.3915,32759
22.3973,32016
22.403,33910
22.4087,36441
22.4144,34054
22.4201,33565
22.4259,31539
22.4316,33386
22.4373,35007
22.443,34762
22.4488,33648
22.4545,34112
22.4602,34900
22.4659,35465
22.4716,34501
22.4774,34990
22.4831,34987
22.4888,36032
22.4945,34880
22.5003,36060
22.506,34576
22.5117,35757
22.5174,35445
22.5231,34167
22.5289,35554
22.5346,35628
22.5403,35454
22.546,36398
22.5518,34957
22.5575,36729
22.5632,36504
22.5689,36605
22.5746,36808
22.5804,37429
22.5861,37346
22.5918,35977
22.5975,36674
22.6033,37642
22.609,37769
22.6147,37305
22.6204,38614
22.6261,35525
22.6319,37380
22.6376,35974
22.6433,36912
22.649,37231
22.6548,38968
22.6605,37675
22.6662,38500
22.6719,37028
22.6776,36030
22.6834,37099
22.6891,37425
22.6948,37464
22.7005,38587
22.7062,38999
22.712,40630
22.7177,39691
22.7234,39347
22.7291,38560
22.7349,39755
22.7406,39281
22.7463,39237
22.752,40615
22.7577,39907
22.7635,41006
22.7692,38984
22.7749,40438
22.7806,39409
22.7864,39974
22.7921,38838
22.7978,40593
22.8035,40048
22.8092,40690
22.815,40739
22.8207,41253
22.8264,40599
22.8321,41802
22.8379,42171
22.8436,41843
22.8493,41919
22.855,41423
22.8607,43382
22.8665,41664
22.8722,40712
22.8779,40784
22.8836,42748
22.8894,42168
22.8951,43038
22.9008,42281
22.9065,41229
22.9122,40059
22.918,43208
22.9237,41342
22.9294,43193
22.9351,44928
22.9408,42136
22.9466,45911
22.9523,41822
22.958,43491
22.9637,40928
22.9695,44680
22.9752,43617
22.9809,43308
22.9866,44180
22.9923,43461
22.9981,44784
23.0038,43671
23.0095,45229
23.0152,44910
23.021,43891
23.0267,46310
23.0324,45781
23.0381,43587
23.0438,44972
23.0496,44620
23.0553,43329
23.061,48080
23.0667,44267
23.0725,45361
23.0782,43424
23.0839,46421
23.0896,45426
23.0953,45678
23.1011,45124
23.1068,44655
23.1125,46426
23.1182,45695
23.124,47068
23.1297,44748
23.1354,44881
23.1411,46459
23.1468,47760
23.1526,47406
23.1583,45541
23.164,45412
23.1697,46229
23.1754,47909
23.1812,45669
23.1869,47211
23.1926,45336
23.1983,47463
23.2041,45365
23.2098,48675
23.2155,46675
23.2212,46273
23.2269,47555
23.2327,46051
23.2384,46887
23.2441,46523
23.2498,49379
23.2555,48381
23.2613,47787
23.267,49804
23.2727,47941
23.2784,48530
23.2842,48330
23.2899,46804
23.2956,47623
23.3013,47644
23.3071,46146
23.3128,49273
23.3185,49144
23.3242,50970
23.3299,47141
23.3357,48139
23.3414,47716
23.3471,48333
23.3528,50005
23.3586,47383
23.3643,49054
23.37,49514
23.3757,49878
23.3814,49523
23.3872,49954
23.3929,49773
23.3986,51094
23.4043,49123
23.4101,49007
23.4158,49673
23.4215,51628
23.4272,51113
23.4329,51349
23.4387,49225
23.4444,50584
23.4501,50915
23.4558,51163
23.4615,51474
23.4673,51989
23.473,50630
23.4787,50299
23.4844,51731
23.4902,50793
23.4959,51450
23.5016,52389
23.5073,52241
23.513,52136
23.5188,49458
23.5245,51952
23.5302,49334
23.5359,50182
23.5417,52822
23.5474,51206
23.5531,51875
23.5588,53146
23.5645,51329
23.5703,50231
23.576,52628
23.5817,52984
23.5874,53444
23.5932,51142
23.5989,53085
23.6046,53047
23.6103,52237
23.616,53047
23.6218,49381
23.6275,50899
23.6332,51931
23.6389,51329
23.6447,50929
23.6504,52727
23.6561,52302
23.6618,52777
23.6675,51638
23.6732,52209
23.679,53820
23.6847,52373
23.6904,52707
23.6961,52543
23.7019,52760
23.7076,55986
23.7133,51745
23.719,51329
23.7248,53612
23.7305,53351
23.7362,51798
23.7419,53107
23.7476,54340
23.7534,53969
23.7591,52396
23.7648,54182
23.7705,53725
23.7763,52336
23.782,54658
23.7877,53374
23.7934,54494
23.7991,52402
23.8049,53066
23.8106,54300
23.8163,53513
23.822,53862
23.8278,53306
23.8335,52907
23.8392,52037
23.8449,52868
23.8506,52385
23.8564,52887
23.8621,54499
23.8678,52433
23.8735,50607
23.8793,52526
23.885,50422
23.8907,52054
23.8964,54301
23.9021,54846
23.9079,54099
23.9136,52003
23.9193,53120
23.925,53424
23.9307,51716
23.9365,54598
23.9422,52820
23.9479,56683
23.9536,53136
23.9594,53017
23.9651,54599
23.9708,52206
23.9765,52793
23.9822,53727
23.988,54229
23.9937,52643
23.9994,52908
24.0051,54075
24.0109,55174
24.0166,53798
24.0223,52279
24.028,53348
24.0337,54522
24.0395,52691
24.0452,54105
24.0509,53341
24.0566,54732
24.0624,57436
24.0681,51304
24.0738,54283
24.0795,52761
24.0852,53013
24.0909,54340
24.0967,52535
24.1024,54556
24.1081,54183
24.1139,54640
24.1196,53164
24.1253,53398
24.131,54380
24.1367,54366
24.1425,51969
24.1482,55443
24.1539,54171
24.1596,53237
24.1654,52578
24.1711,53735
24.1768,53143
24.1825,51209
24.1882,53260
24.194,53399
24.1997,52040
24.2054,53593
24.2111,53935
24.2168,52148
24.2226,54273
24.2283,50188
24.234,55581
24.2397,54607
24.2455,55020
24.2512,53462
24.2569,52906
24.2626,56287
24.2683,53525
24.2741,52284
24.2798,54523
24.2855,50383
24.2912,52512
24.297,51845
24.3027,53233
24.3084,54271
24.3141,54066
24.3198,53845
24.3256,55838
24.3313,54558
24.337,53169
24.3427,55979
24.3485,53904
24.3542,52942
24.3599,52864
24.3656,54208
24.3713,54626
24.3771,53318
24.3828,54485
24.3885,52010
24.3942,52148
24.4,53215
24.4057,53844
24.4114,55564
24.4171,52962
24.4228,52225
24.4286,55267
24.4343,54212
24.44,55741
24.4457,52149
24.4514,54852
24.4572,55281
24.4629,54655
24.4686,53504
24.4743,55381
24.4801,51026
24.4858,52661
24.4915,55306
24.4972,51643
24.5029,52848
24.5087,53370
24.5144,52858
24.5201,53938
24.5258,51609
24.5316,53209
24.5373,57472
24.543,52381
24.5487,54675
24.5544,51967
24.5602,56108
24.5659,50555
24.5716,54398
24.5773,52882
24.5831,51884
24.5888,53264
24.5945,54324
24.6002,51505
24.6059,53680
24.6117,54201
24.6174,54573
24.6231,54089
24.6288,53716
24.6346,53897
24.6403,54446
24.646,55001
24.6517,53409
24.6574,54813
24.6632,56821
24.6689,53485
24.6746,53120
24.6803,55726
24.686,56120
24.6918,56182
24.6975,52517
24.7032,55408
24.7089,53420
24.7147,55257
24.7204,53796
24.7261,55915
24.7318,52700
24.7375,51276
24.7433,50944
24.749,54698
24.7547,54558
24.7604,52763
24.7662,52637
24.7719,53795
24.7776,54178
24.7833,55455
24.789,55272
24.7948,53899
24.8005,52295
24.8062,53939
24.8119,53219
24.8177,54720
24.8234,52941
24.8291,54027
24.8348,53828
24.8405,54255
24.8463,53319
24.852,51972
24.8577,54441
24.8634,53135
24.8692,55983
24.8749,53856
24.8806,52931
24.8863,54982
24.892,57833
24.8978,51173
24.9035,54939
24.9092,52553
24.9149,55300
24.9207,54667
24.9264,52528
24.9321,52720
24.9378,53791
24.9435,55713
24.9493,52489
24.955,54165
24.9607,53698
24.9664,55239
24.9721,55324
24.9779,55330
24.9836,53001
24.9893,53822
24.995,54580
