C:\MSDCHEM\1\DATA\JAMES C\20180125 LACTONE WITH BME AND HYDROXYLAMINE\MTBE Blank b.d 25 Jan 18   9:24 pm
Start of data points
3.09257,26292
3.09828,26073
3.10402,25909
3.10973,25161
3.11545,26681
3.12118,25478
3.1269,25686
3.13262,25787
3.13835,25540
3.14407,25874
3.14978,25323
3.15552,26869
3.16123,26755
3.16695,25598
3.17268,27367
3.1784,27294
3.18412,26357
3.18985,25665
3.19557,28542
3.20128,27971
3.207,28314
3.21273,29005
3.21845,29382
3.22417,29140
3.2299,27980
3.23562,27653
3.24133,28210
3.24707,27559
3.25278,27747
3.2585,29181
3.26423,26556
3.26995,25637
3.27567,25526
3.2814,25672
3.28712,25671
3.29283,23970
3.29857,23749
3.30428,21961
3.31,21072
3.31573,22401
3.32145,21215
3.32717,20394
3.33288,19643
3.33862,20736
3.34433,20047
3.35005,20413
3.35578,18944
3.3615,18269
3.36722,19631
3.37295,17628
3.37867,18634
3.38438,17210
3.39012,16894
3.39583,18662
3.40155,17028
3.40728,16703
3.413,17772
3.41872,18084
3.42445,16682
3.43017,16807
3.43588,15915
3.44162,16907
3.44733,17619
3.45305,15116
3.45877,15253
3.4645,15836
3.47022,15006
3.47593,15294
3.48167,15596
3.48738,15792
3.4931,13860
3.49883,14542
3.50455,15416
3.51027,15936
3.516,15428
3.52172,14831
3.52743,14279
3.53317,14118
3.53888,14297
3.5446,13923
3.55033,13813
3.55605,14163
3.56177,15263
3.5675,12748
3.57322,13442
3.57893,12778
3.58465,14320
3.59038,14283
3.5961,12136
3.60182,13577
3.60755,12207
3.61327,13401
3.61898,13262
3.62472,13403
3.63043,12140
3.63615,13102
3.64188,11937
3.6476,12207
3.65332,13057
3.65905,12828
3.66477,12219
3.67048,13237
3.67622,12379
3.68193,12869
3.68765,11074
3.69338,11663
3.6991,13904
3.70482,11753
3.71053,11383
3.71627,11783
3.72198,11171
3.7277,11357
3.73343,12315
3.73915,11935
3.74487,12972
3.7506,11389
3.75632,12449
3.76203,10648
3.76777,12377
3.77348,11315
3.7792,11077
3.78493,11903
3.79065,11380
3.79637,11210
3.8021,10829
3.80782,12304
3.81353,10911
3.81927,11244
3.82498,10251
3.8307,11352
3.83642,10087
3.84215,11273
3.84787,10137
3.85358,10063
3.85932,9938
3.86503,11346
3.87075,10544
3.87648,9944
3.8822,9911
3.88792,10879
3.89365,10383
3.89937,10593
3.90508,10011
3.91082,10803
3.91653,9175
3.92225,10347
3.92798,10214
3.9337,10788
3.93942,10241
3.94515,10736
3.95087,9762
3.95658,9926
3.9623,10176
3.96803,10528
3.97375,9783
3.97947,9466
3.9852,9853
3.99092,10025
3.99663,8688
4.00237,9252
4.00808,9456
4.0138,9961
4.01953,9055
4.02525,8819
4.03097,10538
4.0367,9661
4.04242,9306
4.04813,8788
4.05387,8860
4.05958,9223
4.0653,8876
4.07103,9620
4.07675,9626
4.08247,9554
4.08818,9452
4.09392,10144
4.09963,9774
4.10535,8416
4.11108,8363
4.1168,9041
4.12252,8480
4.12825,8314
4.13397,9572
4.13968,7867
4.14542,8531
4.15113,8238
4.15685,8696
4.16258,8818
4.1683,8909
4.17402,8868
4.17975,8182
4.18547,7506
4.19118,8835
4.19692,8684
4.20263,7461
4.20835,8242
4.21407,8686
4.2198,8301
4.22552,8342
4.23123,8291
4.23697,8715
4.24268,7832
4.2484,8646
4.25413,8501
4.25985,8281
4.26557,8288
4.2713,8905
4.27702,8021
4.28273,7129
4.28847,8160
4.29418,8253
4.2999,8402
4.30563,7947
4.31135,7978
4.31707,8190
4.3228,8097
4.32852,7910
4.33423,8368
4.33995,8063
4.34568,7578
4.3514,8391
4.35712,8310
4.36285,8565
4.36857,8462
4.37428,8443
4.38002,7384
4.38573,8070
4.39145,7639
4.39718,7824
4.4029,8854
4.40862,6682
4.41435,8176
4.42007,8146
4.42578,8477
4.43152,8656
4.43723,7798
4.44295,7577
4.44868,8239
4.4544,8120
4.46012,7258
4.46583,7690
4.47157,7880
4.47728,8413
4.483,7752
4.48873,7581
4.49445,7448
4.50017,7468
4.5059,7866
4.51162,7040
4.51733,8705
4.52307,7307
4.52878,6845
4.5345,7940
4.54023,6434
4.54595,6839
4.55167,8521
4.5574,7810
4.56312,7434
4.56883,7519
4.57457,7452
4.58028,6920
4.586,7755
4.59172,8190
4.59745,7858
4.60317,6984
4.60888,7185
4.61462,7609
4.62033,6777
4.62605,7887
4.63178,7096
4.6375,7192
4.64322,7398
4.64895,7802
4.65467,6529
4.66038,7206
4.66612,7531
4.67183,7352
4.67755,7391
4.68328,6843
4.689,7203
4.69472,7231
4.70045,7916
4.70617,7365
4.71188,7699
4.7176,6817
4.72333,7029
4.72905,7078
4.73477,7288
4.7405,7058
4.74622,6976
4.75193,7273
4.75767,7986
4.76338,6917
4.7691,7287
4.77483,6993
4.78055,7457
4.78627,6550
4.792,6649
4.79772,6632
4.80343,7265
4.80917,6648
4.81488,6198
4.8206,5784
4.82633,7104
4.83205,7355
4.83777,7096
4.84348,7175
4.84922,6139
4.85493,6347
4.86065,6446
4.86638,7884
4.8721,7290
4.87782,7504
4.88355,7459
4.88927,6547
4.89498,7192
4.90072,6388
4.90643,7289
4.91215,6372
4.91788,6982
4.9236,6534
4.92932,6503
4.93505,7144
4.94077,7418
4.94648,6543
4.95222,6485
4.95793,6538
4.96365,6833
4.96937,6451
4.9751,6859
4.98082,6839
4.98653,6819
4.99227,7175
4.99798,6830
5.0037,6526
5.00943,5264
5.01515,6811
5.02087,6650
5.0266,7644
5.03232,6596
5.03803,6547
5.04377,7174
5.04948,6532
5.0552,6578
5.06093,6028
5.06665,7284
5.07237,6099
5.0781,5766
5.08382,6070
5.08953,5338
5.09525,6324
5.10098,5693
5.1067,6341
5.11242,6159
5.11815,6394
5.12387,6258
5.12958,6459
5.13532,6733
5.14103,6199
5.14675,6851
5.15248,6142
5.1582,6508
5.16392,6488
5.16965,7252
5.17537,6480
5.18108,6390
5.18682,7002
5.19253,7784
5.19825,7724
5.20398,6292
5.2097,6203
5.21542,7113
5.22113,6152
5.22687,5956
5.23258,7411
5.2383,6460
5.24403,6313
5.24975,5956
5.25547,7442
5.2612,6224
5.26692,6653
5.27263,6189
5.27837,5933
5.28408,6841
5.2898,7054
5.29553,6918
5.30125,7088
5.30697,6606
5.3127,6957
5.31842,6696
5.32413,6475
5.32987,6420
5.33558,7018
5.3413,6834
5.34702,5954
5.35275,6462
5.35847,6818
5.36418,6637
5.36992,7056
5.37563,6925
5.38135,6524
5.38708,6391
5.3928,6947
5.39852,6524
5.40425,7620
5.40997,6109
5.41568,6153
5.42142,6703
5.42713,7303
5.43285,7176
5.43858,6696
5.4443,7364
5.45002,7803
5.45575,6633
5.46147,6763
5.46718,6342
5.4729,7340
5.47863,6447
5.48435,7020
5.49007,6118
5.4958,7066
5.50152,6790
5.50723,6603
5.51297,7228
5.51868,6399
5.5244,6665
5.53013,7138
5.53585,7286
5.54157,6805
5.5473,7020
5.55302,6778
5.55873,6318
5.56447,5579
5.57018,6078
5.5759,6373
5.58163,7608
5.58735,5711
5.59307,7142
5.59878,5728
5.60452,6881
5.61023,6415
5.61595,6364
5.62168,6445
5.6274,6910
5.63312,4989
5.63885,6202
5.64457,6335
5.65028,7170
5.65602,5924
5.66173,5706
5.66745,6483
5.67318,5993
5.6789,7378
5.68462,6584
5.69035,6735
5.69607,6118
5.70178,6357
5.70752,6868
5.71323,6125
5.71895,6868
5.72467,6859
5.7304,7637
5.73612,6048
5.74183,6386
5.74757,6138
5.75328,6027
5.759,6968
5.76473,6981
5.77045,7154
5.77617,6936
5.7819,7098
5.78762,6146
5.79333,5912
5.79907,6681
5.80478,6956
5.8105,6678
5.81623,6141
5.82195,5433
5.82767,6747
5.8334,7460
5.83912,6166
5.84483,6062
5.85055,6380
5.85628,6385
5.862,6575
5.86772,6259
5.87345,5789
5.87917,6514
5.88488,6337
5.89062,6895
5.89633,5640
5.90205,6510
5.90778,6539
5.9135,7557
5.91922,7403
5.92495,6866
5.93067,6876
5.93638,6473
5.94212,7045
5.94783,5982
5.95355,6112
5.95928,6826
5.965,6963
5.97072,6092
5.97643,6761
5.98217,6852
5.98788,6335
5.9936,6509
5.99933,7211
6.00505,7017
6.01077,6784
6.0165,6512
6.02222,6505
6.02793,6449
6.03367,7066
6.03938,6433
6.0451,6620
6.05083,6523
6.05655,7057
6.06227,6301
6.068,5568
6.07372,6548
6.07943,6361
6.08517,6755
6.09088,6354
6.0966,7123
6.10232,6488
6.10805,6394
6.11377,5512
6.11948,7041
6.12522,7632
6.13093,6669
6.13665,7481
6.14238,6601
6.1481,6583
6.15382,7154
6.15955,6067
6.16527,6243
6.17098,6426
6.17672,6941
6.18243,7470
6.18815,6700
6.19388,7256
6.1996,7001
6.20532,7044
6.21105,6910
6.21677,6868
6.22248,6305
6.2282,6696
6.23393,6324
6.23965,7526
6.24537,7061
6.2511,6572
6.25682,7281
6.26253,6453
6.26827,7627
6.27398,6399
6.2797,6799
6.28543,7247
6.29115,7305
6.29687,6832
6.3026,6654
6.30832,6351
6.31403,6559
6.31977,6676
6.32548,6003
6.3312,6866
6.33693,6359
6.34265,6651
6.34837,6076
6.35408,7073
6.35982,7429
6.36553,7970
6.37125,7284
6.37698,6463
6.3827,6646
6.38842,6878
6.39415,6160
6.39987,7133
6.40558,7035
6.41132,7327
6.41703,7119
6.42275,6588
6.42848,6022
6.4342,5643
6.43992,6712
6.44565,6231
6.45137,7006
6.45708,7140
6.46282,6626
6.46853,6643
6.47425,6465
6.47997,7294
6.4857,6433
6.49142,7109
6.49713,6728
6.50287,6503
6.50858,6106
6.5143,7465
6.52003,6663
6.52575,6574
6.53147,6211
6.5372,6534
6.54292,6284
6.54863,7432
6.55437,7426
6.56008,6860
6.5658,6748
6.57153,6864
6.57725,6274
6.58297,7788
6.5887,7360
6.59442,6626
6.60013,7572
6.60585,6550
6.61158,7015
6.6173,8425
6.62302,7046
6.62875,6830
6.63447,7206
6.64018,7835
6.64592,6114
6.65163,7450
6.65735,6839
6.66308,7088
6.6688,7434
6.67452,7512
6.68025,7698
6.68597,6991
6.69168,6974
6.69742,7345
6.70313,7899
6.70885,6544
6.71458,7302
6.7203,6921
6.72602,6906
6.73175,6645
6.73747,7227
6.74318,7315
6.7489,6998
6.75463,7933
6.76035,7538
6.76607,7834
6.7718,6580
6.77752,7027
6.78323,6058
6.78897,7262
6.79468,7941
6.8004,6834
6.80613,7354
6.81185,6825
6.81757,7120
6.8233,7092
6.82902,7687
6.83473,6883
6.84047,7240
6.84618,7444
6.8519,6875
6.85763,7197
6.86335,7940
6.86907,7917
6.87478,8160
6.88052,6807
6.88623,8328
6.89195,7658
6.89768,7656
6.9034,7123
6.90912,6918
6.91485,7375
6.92057,7723
6.92628,6549
6.93202,6673
6.93773,6189
6.94345,7825
6.94918,6545
6.9549,7794
6.96062,7587
6.96635,7250
6.97207,6843
6.97778,7225
6.98352,8348
6.98923,8050
6.99495,6769
7.00067,7147
7.0064,8713
7.01212,7490
7.01783,7248
7.02357,6846
7.02928,7110
7.035,7023
7.04073,6760
7.04645,7736
7.05217,7371
7.0579,7976
7.06362,7264
7.06933,7100
7.07507,7777
7.08078,7427
7.0865,7280
7.09223,7600
7.09795,7659
7.10367,7047
7.1094,9024
7.11512,8260
7.12083,8540
7.12655,8817
7.13228,9426
7.138,8574
7.14372,8456
7.14945,8290
7.15517,8400
7.16088,8062
7.16662,9486
7.17233,8231
7.17805,7988
7.18378,8079
7.1895,8183
7.19522,7459
7.20095,6792
7.20667,7043
7.21238,7457
7.21812,7101
7.22383,7534
7.22955,8192
7.23528,7163
7.241,7812
7.24672,7589
7.25243,7057
7.25817,7597
7.26388,6810
7.2696,7620
7.27533,7302
7.28105,7727
7.28677,7963
7.2925,7484
7.29822,8576
7.30393,8413
7.30967,9454
7.31538,9066
7.3211,8779
7.32683,9267
7.33255,7811
7.33827,9165
7.344,9186
7.34972,8178
7.35543,7416
7.36117,7690
7.36688,8172
7.3726,7145
7.37832,7997
7.38405,8184
7.38977,8305
7.39548,7680
7.40122,7766
7.40693,8027
7.41265,7573
7.41838,8153
7.4241,7453
7.42982,7880
7.43555,8336
7.44127,7262
7.44698,7652
7.45272,8360
7.45843,7325
7.46415,8044
7.46988,8297
7.4756,9220
7.48132,7644
7.48705,8581
7.49277,8129
7.49848,8892
7.5042,8806
7.50993,7140
7.51565,7729
7.52137,7765
7.5271,7910
7.53282,8090
7.53853,8062
7.54427,7868
7.54998,9068
7.5557,8372
7.56143,8487
7.56715,7429
7.57287,7036
7.5786,7429
7.58432,8520
7.59003,7985
7.59577,8063
7.60148,7811
7.6072,7889
7.61293,8056
7.61865,9697
7.62437,8813
7.63008,7375
7.63582,7687
7.64153,7974
7.64725,7838
7.65298,8673
7.6587,8289
7.66442,8037
7.67015,8561
7.67587,8047
7.68158,8322
7.68732,8237
7.69303,8502
7.69875,8169
7.70448,9301
7.7102,8509
7.71592,8066
7.72165,9341
7.72737,8537
7.73308,9550
7.73882,9278
7.74453,8169
7.75025,8602
7.75597,9335
7.7617,8928
7.76742,8292
7.77313,8407
7.77887,7882
7.78458,8655
7.7903,8471
7.79603,7733
7.80175,8669
7.80747,9401
7.8132,8474
7.81892,8660
7.82463,8281
7.83037,8336
7.83608,9146
7.8418,7909
7.84753,8404
7.85325,9586
7.85897,7920
7.8647,8185
7.87042,9069
7.87613,7983
7.88185,9419
7.88758,9069
7.8933,8582
7.89902,7982
7.90475,7554
7.91047,7215
7.91618,7361
7.92192,8598
7.92763,8686
7.93335,8513
7.93908,9110
7.9448,8761
7.95052,7845
7.95625,7964
7.96197,8426
7.96768,8830
7.97342,8172
7.97913,8314
7.98485,9379
7.99058,8355
7.9963,8109
8.00202,8958
8.00773,8351
8.01347,8984
8.01918,9688
8.0249,8747
8.03063,9734
8.03635,9356
8.04207,8897
8.0478,8693
8.05352,8628
8.05923,8336
8.06497,9577
8.07068,8902
8.0764,9195
8.08213,9276
8.08785,9107
8.09357,9573
8.0993,8949
8.10502,9356
8.11073,9141
8.11647,8957
8.12218,8189
8.1279,8775
8.13362,9278
8.13935,8490
8.14507,8415
8.15078,9039
8.15652,8401
8.16223,8938
8.16795,9163
8.17368,9259
8.1794,8388
8.18512,9594
8.19085,8905
8.19657,9587
8.20228,9128
8.20802,9540
8.21373,9106
8.21945,9724
8.22518,9727
8.2309,9471
8.23662,9666
8.24235,8059
8.24807,9433
8.25378,8973
8.2595,9630
8.26523,9423
8.27095,9803
8.27667,9533
8.2824,9745
8.28812,8570
8.29383,9221
8.29957,9037
8.30528,8709
8.311,8988
8.31673,8915
8.32245,9725
8.32817,10118
8.3339,9414
8.33962,9082
8.34533,8480
8.35107,8402
8.35678,8932
8.3625,9845
8.36823,8506
8.37395,10005
8.37967,9680
8.38538,8803
8.39112,11468
8.39683,9613
8.40255,9359
8.40828,9971
8.414,10354
8.41972,9550
8.42545,9676
8.43117,9978
8.43688,9880
8.44262,9865
8.44833,9486
8.45405,9647
8.45978,10087
8.4655,10113
8.47122,8463
8.47695,8966
8.48267,10199
8.48838,9674
8.49412,10672
8.49983,9333
8.50555,9910
8.51127,10126
8.517,9680
8.52272,10624
8.52843,9487
8.53417,9430
8.53988,11073
8.5456,9578
8.55133,9946
8.55705,9443
8.56277,9204
8.5685,9632
8.57422,10494
8.57993,9421
8.58567,10422
8.59138,9264
8.5971,9918
8.60283,9582
8.60855,9967
8.61427,10188
8.62,10242
8.62572,10150
8.63143,9887
8.63715,10048
8.64288,10743
8.6486,10362
8.65432,9927
8.66005,9967
8.66577,9792
8.67148,8993
8.67722,10616
8.68293,9089
8.68865,9610
8.69438,9492
8.7001,10451
8.70582,9463
8.71155,9787
8.71727,9855
8.72298,10788
8.72872,9494
8.73443,10200
8.74015,9419
8.74588,9517
8.7516,10202
8.75732,10370
8.76303,10629
8.76877,10618
8.77448,10471
8.7802,10180
8.78593,10351
8.79165,10230
8.79737,10323
8.8031,10282
8.80882,10480
8.81453,9852
8.82027,10255
8.82598,10865
8.8317,9936
8.83743,10079
8.84315,9799
8.84887,10007
8.8546,10951
8.86032,10445
8.86603,10809
8.87177,9670
8.87748,9557
8.8832,9956
8.88892,9792
8.89465,10361
8.90037,9547
8.90608,9974
8.91182,10286
8.91753,10814
8.92325,9608
8.92898,10085
8.9347,10104
8.94042,10964
8.94615,9917
8.95187,10766
8.95758,10842
8.96332,10443
8.96903,10087
8.97475,10114
8.98048,10773
8.9862,13518
8.99192,13137
8.99765,13117
9.00337,13892
9.00908,13789
9.0148,12005
9.02053,11300
9.02625,11394
9.03197,11265
9.0377,10996
9.04342,10770
9.04913,10944
9.05487,9656
9.06058,10344
9.0663,10172
9.07203,10987
9.07775,11233
9.08347,11588
9.0892,10830
9.09492,12210
9.10063,10728
9.10637,10675
9.11208,10743
9.1178,10985
9.12353,10817
9.12925,10870
9.13497,11324
9.14068,11142
9.14642,10620
9.15213,10977
9.15785,11523
9.16358,9802
9.1693,10455
9.17502,10676
9.18075,10547
9.18647,9919
9.19218,10526
9.19792,11136
9.20363,10772
9.20935,9801
9.21508,12081
9.2208,10623
9.22652,12052
9.23225,9899
9.23797,10539
9.24368,10891
9.24942,9759
9.25513,10881
9.26085,11202
9.26657,11031
9.2723,10689
9.27802,11001
9.28373,10465
9.28947,11238
9.29518,11780
9.3009,11314
9.30663,11002
9.31235,10506
9.31807,11312
9.3238,11435
9.32952,11171
9.33523,10928
9.34097,11078
9.34668,11923
9.3524,11459
9.35813,10628
9.36385,11164
9.36957,11190
9.3753,11235
9.38102,11880
9.38673,11266
9.39245,11273
9.39818,12475
9.4039,11443
9.40962,12005
9.41535,11760
9.42107,11961
9.42678,11805
9.43252,11286
9.43823,11165
9.44395,11542
9.44968,11079
9.4554,11185
9.46112,10688
9.46685,10885
9.47257,10538
9.47828,11405
9.48402,11436
9.48973,10962
9.49545,10846
9.50118,11720
9.5069,11288
9.51262,11602
9.51833,11874
9.52407,11760
9.52978,10975
9.5355,12145
9.54123,11698
9.54695,11400
9.55267,12270
9.5584,11516
9.56412,10565
9.56983,10668
9.57557,11345
9.58128,10305
9.587,10796
9.59273,10929
9.59845,11081
9.60417,11627
9.6099,11292
9.61562,11411
9.62133,10588
9.62707,10834
9.63278,11010
9.6385,11575
9.64422,10734
9.64995,10267
9.65567,10479
9.66138,11419
9.66712,10147
9.67283,11054
9.67855,11383
9.68428,10366
9.69,11176
9.69572,10654
9.70145,10663
9.70717,11164
9.71288,11632
9.71862,11018
9.72433,10145
9.73005,11430
9.73578,10731
9.7415,11915
9.74722,11269
9.75295,11143
9.75867,11153
9.76438,11198
9.7701,11113
9.77583,10610
9.78155,10605
9.78727,10456
9.793,11403
9.79872,11114
9.80443,12090
9.81017,10922
9.81588,10471
9.8216,10705
9.82733,11226
9.83305,10745
9.83877,11310
9.8445,11239
9.85022,12464
9.85593,11412
9.86167,10580
9.86738,12157
9.8731,11046
9.87883,11203
9.88455,11358
9.89027,11469
9.89598,10380
9.90172,10872
9.90743,11237
9.91315,10903
9.91888,10596
9.9246,10443
9.93032,10985
9.93605,11537
9.94177,11007
9.94748,11523
9.95322,12613
9.95893,10802
9.96465,11313
9.97038,12380
9.9761,11003
9.98182,10975
9.98755,12158
9.99327,11759
9.99898,11703
10.0047,11079
10.0104,11886
10.0162,10636
10.0219,10994
10.0276,11768
10.0333,10819
10.039,11038
10.0448,11880
10.0505,11558
10.0562,11421
10.0619,10782
10.0677,10998
10.0734,11211
10.0791,11036
10.0848,11356
10.0905,11272
10.0963,11841
10.102,11133
10.1077,11137
10.1134,10924
10.1192,11253
10.1249,11220
10.1306,11421
10.1363,11245
10.142,10570
10.1478,10733
10.1535,11634
10.1592,11495
10.1649,10513
10.1707,11301
10.1764,10496
10.1821,10808
10.1878,10682
10.1935,12042
10.1993,11632
10.205,11115
10.2107,10842
10.2164,10884
10.2222,11012
10.2279,10961
10.2336,11799
10.2393,10617
10.245,12149
10.2508,11246
10.2565,11068
10.2622,10780
10.2679,10148
10.2736,10540
10.2794,11212
10.2851,10598
10.2908,12290
10.2965,11113
10.3023,11953
10.308,10811
10.3137,12550
10.3194,12005
10.3251,11659
10.3309,11090
10.3366,11216
10.3423,11128
10.348,11174
10.3538,12137
10.3595,11099
10.3652,11019
10.3709,11484
10.3766,11592
10.3824,11994
10.3881,11855
10.3938,11451
10.3995,12515
10.4053,12319
10.411,11332
10.4167,11371
10.4224,11869
10.4281,11775
10.4339,12760
10.4396,14085
10.4453,13630
10.451,14847
10.4568,13617
10.4625,12453
10.4682,11535
10.4739,11501
10.4796,11667
10.4854,12886
10.4911,12117
10.4968,12037
10.5025,11594
10.5083,12627
10.514,12595
10.5197,11721
10.5254,13113
10.5311,12947
10.5369,13161
10.5426,13935
10.5483,12900
10.554,13275
10.5597,12846
10.5655,12886
10.5712,13684
10.5769,12775
10.5826,13409
10.5884,13479
10.5941,13417
10.5998,13832
10.6055,12816
10.6112,13254
10.617,13605
10.6227,13747
10.6284,13039
10.6341,13142
10.6399,14404
10.6456,14241
10.6513,14717
10.657,14485
10.6627,14191
10.6685,15368
10.6742,14026
10.6799,14562
10.6856,14839
10.6914,12889
10.6971,14986
10.7028,13470
10.7085,12934
10.7142,13370
10.72,13063
10.7257,13030
10.7314,12718
10.7371,13533
10.7429,13249
10.7486,13009
10.7543,13199
10.76,12775
10.7657,12425
10.7715,12536
10.7772,11595
10.7829,11716
10.7886,13572
10.7943,13433
10.8001,12796
10.8058,14270
10.8115,12459
10.8172,12821
10.823,13467
10.8287,13411
10.8344,13482
10.8401,13220
10.8458,13237
10.8516,12867
10.8573,13930
10.863,12258
10.8687,13898
10.8745,13808
10.8802,12766
10.8859,13229
10.8916,13343
10.8973,12573
10.9031,13269
10.9088,12188
10.9145,14170
10.9202,13412
10.926,12786
10.9317,13178
10.9374,12896
10.9431,13694
10.9488,14139
10.9546,12763
10.9603,13117
10.966,14256
10.9717,13556
10.9775,13317
10.9832,12841
10.9889,13750
10.9946,13558
11.0003,14414
11.0061,13342
11.0118,15257
11.0175,14131
11.0232,13902
11.029,12870
11.0347,14555
11.0404,13725
11.0461,14356
11.0518,13738
11.0576,14924
11.0633,13216
11.069,14833
11.0747,14316
11.0804,14344
11.0862,14480
11.0919,13811
11.0976,13824
11.1033,14643
11.1091,13556
11.1148,14436
11.1205,13994
11.1262,15444
11.1319,17005
11.1377,20169
11.1434,22347
11.1491,25968
11.1548,27734
11.1606,27748
11.1663,29072
11.172,27905
11.1777,27427
11.1834,25445
11.1892,25468
11.1949,24299
11.2006,23471
11.2063,22981
11.2121,22871
11.2178,22701
11.2235,20615
11.2292,20525
11.2349,18697
11.2407,20075
11.2464,20427
11.2521,19962
11.2578,19727
11.2636,18596
11.2693,18437
11.275,17078
11.2807,18725
11.2864,17124
11.2922,17924
11.2979,17677
11.3036,16345
11.3093,16528
11.315,15036
11.3208,16614
11.3265,15054
11.3322,16312
11.3379,16591
11.3437,15007
11.3494,14832
11.3551,14486
11.3608,13956
11.3665,15100
11.3723,12777
11.378,15127
11.3837,13404
11.3894,15022
11.3952,14296
11.4009,14529
11.4066,14054
11.4123,14019
11.418,13911
11.4238,13679
11.4295,12950
11.4352,13599
11.4409,13790
11.4467,13510
11.4524,12864
11.4581,13689
11.4638,12880
11.4695,12497
11.4753,11514
11.481,13090
11.4867,12623
11.4924,12359
11.4982,11991
11.5039,12789
11.5096,12904
11.5153,12843
11.521,13205
11.5268,13379
11.5325,11486
11.5382,12772
11.5439,12140
11.5496,11418
11.5554,12741
11.5611,11199
11.5668,11425
11.5725,12266
11.5783,11617
11.584,10646
11.5897,12683
11.5954,11094
11.6011,11671
11.6069,11991
11.6126,11865
11.6183,10895
11.624,11734
11.6298,11125
11.6355,11670
11.6412,11616
11.6469,11319
11.6526,11285
11.6584,11300
11.6641,10638
11.6698,11472
11.6755,11565
11.6813,12199
11.687,11604
11.6927,11220
11.6984,12210
11.7041,11073
11.7099,11804
11.7156,12042
11.7213,12026
11.727,13444
11.7328,11891
11.7385,12026
11.7442,11793
11.7499,10844
11.7556,11779
11.7614,12338
11.7671,10653
11.7728,10325
11.7785,10257
11.7843,9921
11.79,10729
11.7957,10422
11.8014,10597
11.8071,10769
11.8129,10549
11.8186,10071
11.8243,10194
11.83,10790
11.8357,9532
11.8415,10420
11.8472,10194
11.8529,11537
11.8586,9882
11.8644,10055
11.8701,11008
11.8758,11177
11.8815,9976
11.8872,10274
11.893,10052
11.8987,10110
11.9044,9621
11.9101,11278
11.9159,10610
11.9216,10693
11.9273,11355
11.933,10371
11.9387,10881
11.9445,10283
11.9502,10568
11.9559,9949
11.9616,11008
11.9674,11114
11.9731,10033
11.9788,9754
11.9845,10794
11.9902,10792
11.996,10950
12.0017,10986
12.0074,10983
12.0131,10448
12.0189,11736
12.0246,10404
12.0303,11536
12.036,10518
12.0417,10121
12.0475,10849
12.0532,10032
12.0589,10855
12.0646,11698
12.0703,11983
12.0761,12845
12.0818,12617
12.0875,11837
12.0932,11537
12.099,12515
12.1047,10795
12.1104,11440
12.1161,11231
12.1218,11505
12.1276,11932
12.1333,11421
12.139,12405
12.1447,12871
12.1505,11530
12.1562,12133
12.1619,12896
12.1676,10318
12.1733,12744
12.1791,12158
12.1848,12651
12.1905,14069
12.1962,12790
12.202,13475
12.2077,12126
12.2134,13101
12.2191,11734
12.2248,12664
12.2306,14173
12.2363,13949
12.242,14279
12.2477,13515
12.2535,14063
12.2592,13541
12.2649,12510
12.2706,12267
12.2763,11941
12.2821,13363
12.2878,13045
12.2935,12738
12.2992,13716
12.3049,12530
12.3107,13582
12.3164,13025
12.3221,12493
12.3278,12316
12.3336,13871
12.3393,12889
12.345,13197
12.3507,12716
12.3564,13864
12.3622,13488
12.3679,11944
12.3736,14500
12.3793,11757
12.3851,13999
12.3908,14082
12.3965,12223
12.4022,13679
12.4079,13224
12.4137,13020
12.4194,13848
12.4251,13894
12.4308,12976
12.4366,13327
12.4423,13295
12.448,13973
12.4537,14357
12.4594,13814
12.4652,13342
12.4709,13782
12.4766,13234
12.4823,13763
12.4881,13471
12.4938,13553
12.4995,14419
12.5052,12088
12.5109,14003
12.5167,13182
12.5224,14524
12.5281,14554
12.5338,15068
12.5396,15843
12.5453,17436
12.551,19358
12.5567,20794
12.5624,22760
12.5682,24454
12.5739,22065
12.5796,23617
12.5853,23551
12.591,24694
12.5968,24744
12.6025,23718
12.6082,23238
12.6139,24089
12.6197,24146
12.6254,23914
12.6311,22539
12.6368,21397
12.6425,22045
12.6483,21684
12.654,20986
12.6597,21252
12.6654,20436
12.6712,20326
12.6769,20357
12.6826,18205
12.6883,17871
12.694,19666
12.6998,18226
12.7055,18784
12.7112,17969
12.7169,18726
12.7227,19022
12.7284,18430
12.7341,19547
12.7398,19075
12.7455,18882
12.7513,18461
12.757,18614
12.7627,19248
12.7684,18522
12.7742,19226
12.7799,18811
12.7856,18125
12.7913,17593
12.797,17296
12.8028,18125
12.8085,18216
12.8142,17668
12.8199,16771
12.8256,16890
12.8314,15915
12.8371,16330
12.8428,15985
12.8485,15988
12.8543,14584
12.86,14754
12.8657,14488
12.8714,14929
12.8771,15869
12.8829,14709
12.8886,15696
12.8943,15441
12.9,17106
12.9058,16379
12.9115,17065
12.9172,16187
12.9229,15097
12.9286,14538
12.9344,14621
12.9401,14345
12.9458,14412
12.9515,12899
12.9573,13758
12.963,14259
12.9687,13350
12.9744,12982
12.9801,13192
12.9859,13257
12.9916,11762
12.9973,12284
13.003,14221
13.0088,13129
13.0145,13159
13.0202,13417
13.0259,13434
13.0316,12175
13.0374,12933
13.0431,13170
13.0488,12988
13.0545,12268
13.0602,12413
13.066,12943
13.0717,11831
13.0774,12061
13.0831,12251
13.0889,13092
13.0946,12364
13.1003,12225
13.106,12194
13.1117,12994
13.1175,13892
13.1232,13128
13.1289,12553
13.1346,12939
13.1404,11709
13.1461,13204
13.1518,13184
13.1575,13167
13.1632,12697
13.169,11943
13.1747,11383
13.1804,13114
13.1861,11772
13.1919,13087
13.1976,12915
13.2033,11295
13.209,12005
13.2147,13274
13.2205,13185
13.2262,12134
13.2319,11165
13.2376,11328
13.2434,12715
13.2491,12093
13.2548,11918
13.2605,12439
13.2662,11838
13.272,11794
13.2777,12117
13.2834,12268
13.2891,12963
13.2949,11911
13.3006,12055
13.3063,13356
13.312,12530
13.3177,12647
13.3235,12169
13.3292,11898
13.3349,12791
13.3406,13394
13.3463,11952
13.3521,12213
13.3578,13294
13.3635,13149
13.3692,12609
13.375,12725
13.3807,12475
13.3864,12890
13.3921,10783
13.3978,11881
13.4036,12293
13.4093,13026
13.415,11713
13.4207,11302
13.4265,12707
13.4322,12508
13.4379,12561
13.4436,10491
13.4493,11843
13.4551,11241
13.4608,12456
13.4665,12822
13.4722,10969
13.478,11556
13.4837,11477
13.4894,10634
13.4951,11615
13.5008,11235
13.5066,11682
13.5123,11921
13.518,11890
13.5237,11796
13.5295,12494
13.5352,12191
13.5409,11965
13.5466,11744
13.5523,11100
13.5581,11932
13.5638,12052
13.5695,10842
13.5752,12233
13.5809,11561
13.5867,11642
13.5924,12155
13.5981,11491
13.6038,11980
13.6096,11122
13.6153,11603
13.621,11296
13.6267,12170
13.6324,11904
13.6382,12091
13.6439,12078
13.6496,11188
13.6553,11181
13.6611,11754
13.6668,11591
13.6725,11981
13.6782,12058
13.6839,12642
13.6897,13045
13.6954,11444
13.7011,12094
13.7068,12104
13.7126,11791
13.7183,12041
13.724,13030
13.7297,13035
13.7354,13215
13.7412,12476
13.7469,11604
13.7526,11934
13.7583,11987
13.7641,10807
13.7698,11758
13.7755,11545
13.7812,11926
13.7869,10821
13.7927,12092
13.7984,11269
13.8041,11329
13.8098,11832
13.8155,11500
13.8213,11980
13.827,11389
13.8327,11237
13.8384,12067
13.8442,12277
13.8499,12723
13.8556,12370
13.8613,11191
13.867,11797
13.8728,12312
13.8785,11695
13.8842,12014
13.8899,10015
13.8957,11812
13.9014,11086
13.9071,11751
13.9128,11590
13.9185,12366
13.9243,12816
13.93,11035
13.9357,11692
13.9414,10862
13.9472,11712
13.9529,11740
13.9586,12759
13.9643,13305
13.97,13136
13.9758,13904
13.9815,14454
13.9872,12643
13.9929,11895
13.9987,12202
14.0044,10745
14.0101,10568
14.0158,11891
14.0215,11983
14.0273,12446
14.033,11348
14.0387,12196
14.0444,11454
14.0502,12174
14.0559,11734
14.0616,12707
14.0673,11282
14.073,11963
14.0788,12167
14.0845,13256
14.0902,12382
14.0959,11520
14.1016,12083
14.1074,12525
14.1131,11714
14.1188,12460
14.1245,12967
14.1303,11990
14.136,10969
14.1417,11756
14.1474,12334
14.1531,11721
14.1589,13494
14.1646,13623
14.1703,13184
14.176,11432
14.1818,12531
14.1875,11484
14.1932,13048
14.1989,13062
14.2046,12754
14.2104,12515
14.2161,12532
14.2218,12361
14.2275,12578
14.2333,12936
14.239,12044
14.2447,14193
14.2504,12196
14.2561,11911
14.2619,13009
14.2676,11639
14.2733,12429
14.279,12632
14.2848,12526
14.2905,11631
14.2962,12646
14.3019,13006
14.3076,13467
14.3134,13053
14.3191,13842
14.3248,14543
14.3305,13063
14.3362,11911
14.342,13562
14.3477,12521
14.3534,12878
14.3591,14019
14.3649,13548
14.3706,13644
14.3763,14055
14.382,14117
14.3877,13570
14.3935,13343
14.3992,13391
14.4049,13252
14.4106,12954
14.4164,14183
14.4221,14034
14.4278,12969
14.4335,13068
14.4392,13356
14.445,13356
14.4507,14041
14.4564,13233
14.4621,13821
14.4679,13464
14.4736,14744
14.4793,14571
14.485,14843
14.4907,13248
14.4965,13772
14.5022,14672
14.5079,14549
14.5136,14097
14.5194,14347
14.5251,13811
14.5308,14322
14.5365,14137
14.5422,13949
14.548,14262
14.5537,14737
14.5594,14284
14.5651,13734
14.5709,14176
14.5766,14442
14.5823,15461
14.588,14071
14.5937,14488
14.5995,13784
14.6052,14396
14.6109,14568
14.6166,14328
14.6223,14275
14.6281,14574
14.6338,15107
14.6395,14922
14.6452,14149
14.651,15406
14.6567,14933
14.6624,14628
14.6681,15067
14.6738,13602
14.6796,14319
14.6853,14942
14.691,14656
14.6967,15437
14.7025,16016
14.7082,16064
14.7139,15682
14.7196,15035
14.7253,15940
14.7311,15348
14.7368,15244
14.7425,16054
14.7482,14447
14.754,16705
14.7597,16515
14.7654,16486
14.7711,16242
14.7768,16675
14.7826,15815
14.7883,15188
14.794,16798
14.7997,16843
14.8055,16211
14.8112,15863
14.8169,16738
14.8226,16836
14.8283,16284
14.8341,16218
14.8398,15686
14.8455,16895
14.8512,16328
14.8569,18499
14.8627,16718
14.8684,17272
14.8741,17981
14.8798,17399
14.8856,17931
14.8913,17134
14.897,16798
14.9027,17596
14.9084,17549
14.9142,17463
14.9199,18604
14.9256,19167
14.9313,18405
14.9371,18892
14.9428,19698
14.9485,18100
14.9542,19858
14.9599,20433
14.9657,19912
14.9714,19473
14.9771,21202
14.9828,19088
14.9886,20124
14.9943,19421
15,18059
15.0057,19442
15.0114,19699
15.0172,19420
15.0229,20675
15.0286,19708
15.0343,20270
15.0401,21184
15.0458,20005
15.0515,19341
15.0572,19764
15.0629,20315
15.0687,20301
15.0744,20869
15.0801,20820
15.0858,19972
15.0915,21398
15.0973,20346
15.103,21957
15.1087,19553
15.1144,21987
15.1202,20205
15.1259,20287
15.1316,21013
15.1373,21336
15.143,21106
15.1488,21069
15.1545,21265
15.1602,23259
15.1659,19489
15.1717,21583
15.1774,22504
15.1831,22017
15.1888,23005
15.1945,20198
15.2003,20393
15.206,23259
15.2117,23355
15.2174,21143
15.2232,22423
15.2289,21698
15.2346,21682
15.2403,22083
15.246,21905
15.2518,23907
15.2575,23343
15.2632,22082
15.2689,24038
15.2747,23552
15.2804,22981
15.2861,24438
15.2918,22797
15.2975,22943
15.3033,23638
15.309,25133
15.3147,23167
15.3204,22667
15.3262,23521
15.3319,23630
15.3376,24039
15.3433,23884
15.349,25321
15.3548,24254
15.3605,24962
15.3662,24247
15.3719,24006
15.3776,24502
15.3834,23679
15.3891,25228
15.3948,24903
15.4005,25208
15.4063,25225
15.412,25353
15.4177,25426
15.4234,25160
15.4291,25936
15.4349,24737
15.4406,26625
15.4463,26432
15.452,26487
15.4578,27079
15.4635,26769
15.4692,26776
15.4749,26320
15.4806,27264
15.4864,27586
15.4921,26782
15.4978,26347
15.5035,27774
15.5093,27411
15.515,26113
15.5207,28866
15.5264,27826
15.5321,29265
15.5379,28195
15.5436,28360
15.5493,28525
15.555,28117
15.5608,30443
15.5665,27220
15.5722,28001
15.5779,29459
15.5836,28398
15.5894,29204
15.5951,30803
15.6008,30438
15.6065,29977
15.6122,29802
15.618,29058
15.6237,30559
15.6294,31897
15.6351,30721
15.6409,31652
15.6466,30841
15.6523,30772
15.658,31995
15.6637,32748
15.6695,33582
15.6752,32122
15.6809,30301
15.6866,32688
15.6924,32343
15.6981,31867
15.7038,33792
15.7095,32437
15.7152,33115
15.721,33397
15.7267,33613
15.7324,35110
15.7381,34500
15.7439,35527
15.7496,33732
15.7553,34359
15.761,32415
15.7667,34294
15.7725,35332
15.7782,34721
15.7839,34261
15.7896,35490
15.7954,34397
15.8011,34006
15.8068,35362
15.8125,37688
15.8182,34234
15.824,36547
15.8297,36771
15.8354,38097
15.8411,35365
15.8468,36842
15.8526,38953
15.8583,36310
15.864,37862
15.8697,38492
15.8755,37212
15.8812,38975
15.8869,37948
15.8926,40559
15.8983,41010
15.9041,39471
15.9098,38934
15.9155,38039
15.9212,37628
15.927,37675
15.9327,37948
15.9384,37292
15.9441,39528
15.9498,37823
15.9556,37949
15.9613,40067
15.967,40333
15.9727,39494
15.9785,41245
15.9842,38548
15.9899,40350
15.9956,40695
16.0013,40965
16.0071,40830
16.0128,39683
16.0185,39358
16.0242,41247
16.0299,42109
16.0357,42962
16.0414,42001
16.0471,41958
16.0528,42473
16.0586,43192
16.0643,42905
16.07,42909
16.0757,43455
16.0815,43422
16.0872,43759
16.0929,43936
16.0986,42228
16.1043,44962
16.1101,43492
16.1158,46601
16.1215,46287
16.1272,46148
16.1329,46852
16.1387,45236
16.1444,47510
16.1501,45291
16.1558,46280
16.1615,46131
16.1673,48369
16.173,47494
16.1787,45858
16.1844,46387
16.1902,46679
16.1959,50322
16.2016,48067
16.2073,47079
16.213,48786
16.2188,49530
16.2245,51237
16.2302,47279
16.2359,47799
16.2417,47963
16.2474,49691
16.2531,50835
16.2588,49582
16.2646,51031
16.2703,49963
16.276,50161
16.2817,49975
16.2874,50213
16.2932,52526
16.2989,50950
16.3046,52898
16.3103,52283
16.3161,53191
16.3218,53134
16.3275,52962
16.3332,52042
16.3389,52209
16.3447,52159
16.3504,55839
16.3561,53657
16.3618,53790
16.3675,54092
16.3733,53708
16.379,55800
16.3847,54076
16.3904,54999
16.3961,54450
16.4019,53646
16.4076,55426
16.4133,57168
16.419,55812
16.4248,54926
16.4305,57367
16.4362,55206
16.4419,57826
16.4476,58169
16.4534,58209
16.4591,57927
16.4648,55898
16.4705,57752
16.4763,60234
16.482,59591
16.4877,60525
16.4934,58517
16.4992,60220
16.5049,58837
16.5106,61195
16.5163,59469
16.522,60295
16.5278,61464
16.5335,60315
16.5392,62123
16.5449,61696
16.5507,62428
16.5564,64133
16.5621,59893
16.5678,61308
16.5735,63362
16.5792,62460
16.585,65882
16.5907,64577
16.5964,63826
16.6021,64210
16.6079,64521
16.6136,62214
16.6193,66086
16.625,63804
16.6307,65496
16.6365,65201
16.6422,68888
16.6479,68252
16.6536,66331
16.6594,65949
16.6651,65753
16.6708,65655
16.6765,67063
16.6823,65700
16.688,67400
16.6937,65937
16.6994,65689
16.7051,67477
16.7109,68610
16.7166,68153
16.7223,67769
16.728,70345
16.7338,69474
16.7395,70814
16.7452,67939
16.7509,69434
16.7566,69356
16.7624,74252
16.7681,75186
16.7738,75280
16.7795,75467
16.7853,72041
16.791,72018
16.7967,75226
16.8024,75957
16.8081,73535
16.8138,75520
16.8196,72948
16.8253,74891
16.831,75960
16.8367,79480
16.8425,76813
16.8482,76833
16.8539,76958
16.8596,75935
16.8653,78107
16.8711,79368
16.8768,80153
16.8825,80261
16.8882,78394
16.894,79624
16.8997,79170
16.9054,79807
16.9111,83342
16.9169,81757
16.9226,80777
16.9283,82424
16.934,81642
16.9397,79628
16.9455,79705
16.9512,80676
16.9569,82132
16.9626,82118
16.9684,85200
16.9741,83715
16.9798,83149
16.9855,83999
16.9912,86552
16.9969,84241
17.0027,87706
17.0084,88049
17.0141,87991
17.0199,88391
17.0256,87670
17.0313,86160
17.037,90436
17.0427,88729
17.0484,89288
17.0542,88360
17.0599,85848
17.0656,87754
17.0713,89830
17.0771,91865
17.0828,90596
17.0885,89438
17.0942,88607
17.1,89426
17.1057,90041
17.1114,89292
17.1171,90295
17.1228,92142
17.1286,91231
17.1343,90736
17.14,92197
17.1457,91421
17.1515,95177
17.1572,91504
17.1629,93435
17.1686,93035
17.1743,92866
17.1801,93398
17.1858,88959
17.1915,93004
17.1972,92981
17.203,95364
17.2087,95036
17.2144,93094
17.2201,97385
17.2258,96569
17.2315,97406
17.2373,97202
17.243,98082
17.2487,97425
17.2544,95497
17.2602,99288
17.2659,98933
17.2716,99431
17.2773,101328
17.283,96738
17.2888,97256
17.2945,102934
17.3002,96621
17.3059,103820
17.3117,100205
17.3174,98458
17.3231,101661
17.3288,101756
17.3346,100886
17.3403,98546
17.346,101988
17.3517,101806
17.3574,102308
17.3632,100784
17.3689,100445
17.3746,101273
17.3803,101685
17.3861,107345
17.3918,103634
17.3975,101881
17.4032,104485
17.4089,104035
17.4147,102776
17.4204,104451
17.4261,108192
17.4318,102511
17.4376,101577
17.4433,104401
17.449,103881
17.4547,102674
17.4604,106038
17.4662,104873
17.4719,104463
17.4776,104686
17.4833,104816
17.4891,104784
17.4948,105914
17.5005,105062
17.5062,104823
17.5119,107072
17.5177,106232
17.5234,105865
17.5291,104544
17.5348,103635
17.5406,104689
17.5463,105402
17.552,107788
17.5577,109224
17.5634,109341
17.5692,105014
17.5749,107073
17.5806,107771
17.5863,109043
17.5921,104848
17.5978,107951
17.6035,109419
17.6092,110569
17.6149,110271
17.6207,111477
17.6264,107754
17.6321,112012
17.6378,109543
17.6435,109205
17.6493,107626
17.655,107071
17.6607,107781
17.6664,109096
17.6722,107298
17.6779,109196
17.6836,109069
17.6893,110028
17.695,109120
17.7008,109717
17.7065,109167
17.7122,107141
17.7179,111312
17.7236,110922
17.7294,110403
17.7351,108511
17.7408,111234
17.7465,111243
17.7523,108446
17.758,110413
17.7637,112324
17.7694,109651
17.7752,112046
17.7809,113857
17.7866,110282
17.7923,109440
17.798,113616
17.8038,111929
17.8095,112049
17.8152,110924
17.8209,111927
17.8267,111610
17.8324,111488
17.8381,112733
17.8438,113039
17.8495,112605
17.8553,112401
17.861,110341
17.8667,111368
17.8724,113363
17.8781,112709
17.8839,109699
17.8896,111429
17.8953,113489
17.901,115336
17.9068,111916
17.9125,112412
17.9182,112587
17.9239,110331
17.9296,112870
17.9354,116750
17.9411,114570
17.9468,116135
17.9525,113930
17.9583,112971
17.964,111609
17.9697,115648
17.9754,112172
17.9811,113348
17.9869,111396
17.9926,110742
