C:\MSDCHEM\1\DATA\BECKY\20180124 2 PHASE EXTR 2\1-23-18 MS 1A.d 24 Jan 18   6:54 pm
Start of data points
3.09268,8866
3.0984,9076
3.10413,8266
3.10985,9963
3.11557,8611
3.1213,7855
3.12702,8185
3.13273,8365
3.13847,8933
3.14418,7818
3.1499,8119
3.15563,7730
3.16135,7511
3.16707,8215
3.17278,8956
3.17852,8344
3.18423,7236
3.18995,8294
3.19568,7872
3.2014,7814
3.20712,8636
3.21285,7568
3.21857,8404
3.22428,8448
3.23002,8028
3.23573,8021
3.24145,8296
3.24718,9503
3.2529,10639
3.25862,11681
3.26435,10197
3.27007,11299
3.27578,11182
3.28152,11246
3.28723,11868
3.29295,10559
3.29867,10149
3.3044,11512
3.31012,9700
3.31583,9980
3.32157,9811
3.32728,8829
3.333,9265
3.33873,8374
3.34445,8222
3.35017,9068
3.3559,10326
3.36162,7972
3.36733,8165
3.37307,8753
3.37878,9424
3.3845,8971
3.39023,8324
3.39595,7600
3.40167,8121
3.4074,8400
3.41312,8473
3.41883,8336
3.42455,7543
3.43028,7979
3.436,6948
3.44172,7568
3.44745,7466
3.45317,7307
3.45888,7464
3.46462,7472
3.47033,6742
3.47605,6403
3.48178,8034
3.4875,7393
3.49322,6339
3.49895,5930
3.50467,7313
3.51038,7205
3.51612,6845
3.52183,7304
3.52755,6358
3.53328,7249
3.539,7235
3.54472,6741
3.55043,6578
3.55617,6470
3.56188,6486
3.5676,6491
3.57333,6688
3.57905,5939
3.58477,6043
3.5905,6189
3.59622,6249
3.60193,6418
3.60767,6315
3.61338,6286
3.6191,6401
3.62483,6517
3.63055,6572
3.63627,5771
3.642,6361
3.64772,5420
3.65343,6189
3.65917,6476
3.66488,5857
3.6706,5645
3.67632,5571
3.68205,5666
3.68777,5266
3.69348,5306
3.69922,5410
3.70493,5717
3.71065,3951
3.71638,4990
3.7221,5149
3.72782,5525
3.73355,4727
3.73927,5474
3.74498,4892
3.75072,4833
3.75643,5550
3.76215,4859
3.76788,5839
3.7736,4974
3.77932,4428
3.78505,5519
3.79077,5430
3.79648,4931
3.8022,5618
3.80793,5148
3.81365,4614
3.81937,4896
3.8251,4811
3.83082,5681
3.83653,5573
3.84227,4043
3.84798,4929
3.8537,4459
3.85943,4116
3.86515,4955
3.87087,5163
3.8766,4539
3.88232,4378
3.88803,4476
3.89377,4961
3.89948,4999
3.9052,3847
3.91093,4278
3.91665,4293
3.92237,4938
3.92808,4090
3.93382,4328
3.93953,4290
3.94525,4928
3.95098,4366
3.9567,4191
3.96242,3859
3.96815,3666
3.97387,4309
3.97958,4319
3.98532,4367
3.99103,4277
3.99675,4146
4.00248,3527
4.0082,3826
4.01392,4171
4.01965,2857
4.02537,4890
4.03108,4294
4.03682,4557
4.04253,5384
4.04825,3890
4.05397,5475
4.0597,4873
4.06542,4496
4.07113,4203
4.07687,5051
4.08258,4110
4.0883,4636
4.09403,4058
4.09975,4087
4.10547,3694
4.1112,3826
4.11692,4056
4.12263,4015
4.12837,3805
4.13408,3709
4.1398,3605
4.14553,3362
4.15125,3930
4.15697,3827
4.1627,4707
4.16842,5017
4.17413,4487
4.17985,4159
4.18558,3938
4.1913,3355
4.19702,4395
4.20275,3930
4.20847,4169
4.21418,3574
4.21992,3936
4.22563,4250
4.23135,3420
4.23708,3447
4.2428,4122
4.24852,4287
4.25425,2424
4.25997,3501
4.26568,2835
4.27142,3507
4.27713,3642
4.28285,2823
4.28858,3286
4.2943,3164
4.30002,3731
4.30573,3329
4.31147,3529
4.31718,2283
4.3229,4072
4.32863,3070
4.33435,2623
4.34007,3400
4.3458,3646
4.35152,3228
4.35723,4218
4.36297,3513
4.36868,3789
4.3744,3451
4.38013,3072
4.38585,3600
4.39157,2883
4.3973,4289
4.40302,3422
4.40873,3613
4.41447,3853
4.42018,4051
4.4259,3464
4.43162,2639
4.43735,4064
4.44307,3415
4.44878,3691
4.45452,3059
4.46023,2882
4.46595,2699
4.47168,3486
4.4774,2493
4.48312,2879
4.48885,3333
4.49457,3357
4.50028,2678
4.50602,2791
4.51173,2963
4.51745,3836
4.52318,2779
4.5289,3181
4.53462,2664
4.54035,3128
4.54607,2607
4.55178,3060
4.5575,2747
4.56323,3315
4.56895,2917
4.57467,2841
4.5804,2623
4.58612,3020
4.59183,3238
4.59757,2574
4.60328,2852
4.609,2679
4.61473,2534
4.62045,2633
4.62617,2649
4.6319,2385
4.63762,2791
4.64333,2788
4.64907,2908
4.65478,3336
4.6605,2703
4.66623,3451
4.67195,3339
4.67767,2828
4.68338,2755
4.68912,2233
4.69483,2425
4.70055,3072
4.70628,3178
4.712,2112
4.71772,3284
4.72345,2544
4.72917,2250
4.73488,3088
4.74062,2956
4.74633,2389
4.75205,2744
4.75778,2698
4.7635,2054
4.76922,2803
4.77495,2860
4.78067,2784
4.78638,2906
4.79212,2259
4.79783,2900
4.80355,1327
4.80927,2375
4.815,2768
4.82072,2355
4.82643,2279
4.83217,2028
4.83788,2342
4.8436,1526
4.84933,1946
4.85505,2944
4.86077,2568
4.8665,1813
4.87222,1527
4.87793,2582
4.88367,2457
4.88938,2824
4.8951,2382
4.90083,2799
4.90655,2271
4.91227,1873
4.918,2409
4.92372,1446
4.92943,2341
4.93515,1976
4.94088,2403
4.9466,2171
4.95232,2842
4.95805,1818
4.96377,2082
4.96948,2661
4.97522,1779
4.98093,2633
4.98665,2170
4.99238,2623
4.9981,2690
5.00382,2214
5.00955,1982
5.01527,2436
5.02098,1960
5.02672,1706
5.03243,2601
5.03815,5773
5.04388,9314
5.0496,12669
5.05532,12738
5.06103,12986
5.06677,12271
5.07248,17673
5.0782,29190
5.08393,35941
5.08965,47280
5.09537,49022
5.1011,49769
5.10682,49835
5.11253,48075
5.11827,43980
5.12398,45188
5.1297,42415
5.13543,37234
5.14115,35065
5.14687,33467
5.1526,27861
5.15832,27204
5.16403,25815
5.16977,22930
5.17548,23446
5.1812,18951
5.18693,21059
5.19265,19987
5.19837,18673
5.20408,17192
5.20982,17043
5.21553,16056
5.22125,14921
5.22698,14542
5.2327,13907
5.23842,14057
5.24415,12825
5.24987,10464
5.25558,10424
5.26132,9374
5.26703,8147
5.27275,9500
5.27848,9312
5.2842,8423
5.28992,7910
5.29565,7617
5.30137,6851
5.30708,6414
5.31282,6444
5.31853,5961
5.32425,5673
5.32997,5105
5.3357,6111
5.34142,5229
5.34713,4051
5.35287,5566
5.35858,4879
5.3643,5282
5.37003,4545
5.37575,3946
5.38147,3073
5.3872,4084
5.39292,3663
5.39863,3354
5.40437,2941
5.41008,3571
5.4158,3126
5.42153,3840
5.42725,3495
5.43297,3716
5.4387,3662
5.44442,3217
5.45013,3054
5.45585,1645
5.46158,2728
5.4673,3252
5.47302,2892
5.47875,2874
5.48447,2082
5.49018,1749
5.49592,3007
5.50163,2028
5.50735,2063
5.51308,2595
5.5188,2385
5.52452,2461
5.53025,2232
5.53597,1930
5.54168,2160
5.54742,2010
5.55313,2154
5.55885,2363
5.56458,1613
5.5703,1470
5.57602,2557
5.58173,1477
5.58747,1902
5.59318,1321
5.5989,1514
5.60463,1326
5.61035,2106
5.61607,1927
5.6218,1531
5.62752,1493
5.63323,2715
5.63897,1124
5.64468,1651
5.6504,2279
5.65613,2054
5.66185,1793
5.66757,1273
5.6733,1622
5.67902,1534
5.68473,1580
5.69047,1423
5.69618,1141
5.7019,2058
5.70762,1399
5.71335,1196
5.71907,1353
5.72478,1628
5.73052,1376
5.73623,1299
5.74195,1873
5.74768,1462
5.7534,1966
5.75912,808
5.76485,1191
5.77057,1676
5.77628,1647
5.78202,1712
5.78773,2114
5.79345,1379
5.79918,1043
5.8049,1383
5.81062,1507
5.81635,1913
5.82207,1719
5.82778,1123
5.8335,1120
5.83923,2309
5.84495,1024
5.85067,2262
5.8564,2014
5.86212,910
5.86783,1395
5.87357,1609
5.87928,1044
5.885,2006
5.89073,1841
5.89645,1555
5.90217,1447
5.9079,1365
5.91362,1499
5.91933,1470
5.92507,1084
5.93078,1421
5.9365,1336
5.94223,1015
5.94795,1489
5.95367,1845
5.95938,1782
5.96512,1450
5.97083,1202
5.97655,1396
5.98228,1077
5.988,1477
5.99372,601
5.99945,1270
6.00517,1556
6.01088,1095
6.01662,1403
6.02233,1140
6.02805,2218
6.03378,1251
6.0395,1952
6.04522,1432
6.05095,1173
6.05667,1755
6.06238,1547
6.06812,1918
6.07383,1355
6.07955,1315
6.08527,1582
6.091,1773
6.09672,1295
6.10243,1631
6.10817,1125
6.11388,1170
6.1196,910
6.12533,1184
6.13105,966
6.13677,725
6.1425,1118
6.14822,1695
6.15393,1111
6.15967,1497
6.16538,1161
6.1711,1242
6.17683,1055
6.18255,1415
6.18827,1460
6.194,1710
6.19972,1558
6.20543,890
6.21115,785
6.21688,1162
6.2226,1106
6.22832,1200
6.23405,1595
6.23977,1331
6.24548,1252
6.25122,1823
6.25693,1073
6.26265,1182
6.26838,1299
6.2741,1247
6.27982,1474
6.28555,1755
6.29127,1957
6.29698,1478
6.30272,1727
6.30843,1920
6.31415,1102
6.31988,1884
6.3256,1241
6.33132,1842
6.33703,1314
6.34277,1087
6.34848,1610
6.3542,1144
6.35993,1524
6.36565,1237
6.37137,1454
6.3771,1216
6.38282,1052
6.38853,1410
6.39427,1388
6.39998,1908
6.4057,1265
6.41143,2024
6.41715,1383
6.42287,1731
6.4286,1070
6.43432,1675
6.44003,1249
6.44577,1245
6.45148,1383
6.4572,748
6.46292,1342
6.46865,1310
6.47437,1537
6.48008,1382
6.48582,1425
6.49153,1040
6.49725,1684
6.50298,1216
6.5087,1882
6.51442,1534
6.52015,741
6.52587,1685
6.53158,1659
6.53732,1076
6.54303,1150
6.54875,1042
6.55448,1553
6.5602,710
6.56592,1640
6.57165,973
6.57737,730
6.58308,1357
6.5888,1016
6.59453,1391
6.60025,1304
6.60597,1526
6.6117,1684
6.61742,1294
6.62313,1447
6.62887,1565
6.63458,901
6.6403,1126
6.64603,648
6.65175,848
6.65747,1012
6.6632,1223
6.66892,442
6.67463,1184
6.68037,943
6.68608,1356
6.6918,962
6.69753,1362
6.70325,1371
6.70897,1674
6.71468,1176
6.72042,1436
6.72613,1307
6.73185,695
6.73758,839
6.7433,1042
6.74902,1221
6.75475,719
6.76047,693
6.76618,1112
6.77192,836
6.77763,791
6.78335,1186
6.78908,1206
6.7948,1225
6.80052,934
6.80625,1219
6.81197,1009
6.81768,745
6.82342,1380
6.82913,719
6.83485,923
6.84057,616
6.8463,655
6.85202,380
6.85773,744
6.86347,732
6.86918,441
6.8749,316
6.88063,653
6.88635,645
6.89207,518
6.8978,718
6.90352,965
6.90923,159
6.91497,669
6.92068,296
6.9264,441
6.93213,755
6.93785,493
6.94357,852
6.9493,560
6.95502,483
6.96073,659
6.96645,368
6.97218,418
6.9779,499
6.98362,330
6.98935,620
6.99507,236
7.00078,412
7.00652,179
7.01223,483
7.01795,748
7.02368,888
7.0294,556
7.03512,565
7.04085,497
7.04657,159
7.05228,460
7.05802,316
7.06373,438
7.06945,302
7.07518,301
7.0809,366
7.08662,569
7.09233,889
7.09807,341
7.10378,756
7.1095,643
7.11523,203
7.12095,637
7.12667,398
7.1324,961
7.13812,473
7.14383,376
7.14957,746
7.15528,864
7.161,350
7.16673,283
7.17245,400
7.17817,553
7.1839,247
7.18962,558
7.19533,1199
7.20107,1326
7.20678,1368
7.2125,1292
7.21822,2004
7.22395,1785
7.22967,1747
7.23538,788
7.24112,1140
7.24683,975
7.25255,449
7.25828,876
7.264,863
7.26972,406
7.27545,632
7.28117,1108
7.28688,1545
7.29262,2246
7.29833,2682
7.30405,2700
7.30978,3829
7.3155,2660
7.32122,2293
7.32695,2397
7.33267,1474
7.33838,1046
7.3441,1111
7.34983,424
7.35555,856
7.36127,801
7.367,948
7.37272,321
7.37843,739
7.38417,619
7.38988,758
7.3956,816
7.40133,595
7.40705,229
7.41277,636
7.4185,408
7.42422,341
7.42993,381
7.43567,186
7.44138,414
7.4471,577
7.45283,294
7.45855,559
7.46427,838
7.46998,432
7.47572,276
7.48143,481
7.48715,618
7.49288,486
7.4986,323
7.50432,180
7.51005,466
7.51577,620
7.52148,410
7.52722,391
7.53293,432
7.53865,456
7.54438,855
7.5501,780
7.55582,330
7.56155,495
7.56727,726
7.57298,730
7.57872,737
7.58443,418
7.59015,729
7.59587,570
7.6016,633
7.60732,676
7.61303,678
7.61877,483
7.62448,395
7.6302,392
7.63593,389
7.64165,507
7.64737,388
7.6531,185
7.65882,220
7.66453,449
7.67027,529
7.67598,763
7.6817,734
7.68743,473
7.69315,1152
7.69887,1090
7.7046,444
7.71032,909
7.71603,610
7.72175,1221
7.72748,204
7.7332,268
7.73892,469
7.74465,651
7.75037,457
7.75608,740
7.76182,405
7.76753,691
7.77325,772
7.77898,800
7.7847,508
7.79042,610
7.79615,397
7.80187,615
7.80758,436
7.81332,805
7.81903,635
7.82475,371
7.83048,642
7.8362,386
7.84192,434
7.84763,523
7.85337,503
7.85908,453
7.8648,640
7.87053,1004
7.87625,420
7.88197,286
7.8877,815
7.89342,809
7.89913,721
7.90487,593
7.91058,698
7.9163,745
7.92203,834
7.92775,641
7.93347,649
7.9392,439
7.94492,816
7.95063,637
7.95637,915
7.96208,484
7.9678,767
7.97352,269
7.97925,514
7.98497,412
7.99068,770
7.99642,761
8.00213,527
8.00785,770
8.01358,670
8.0193,1466
8.02502,447
8.03075,1128
8.03647,1272
8.04218,752
8.04792,631
8.05363,1042
8.05935,886
8.06508,1104
8.0708,444
8.07652,931
8.08225,808
8.08797,840
8.09368,813
8.0994,1043
8.10513,1310
8.11085,998
8.11657,552
8.1223,575
8.12802,1080
8.13373,660
8.13947,1045
8.14518,1390
8.1509,610
8.15663,534
8.16235,1085
8.16807,1172
8.1738,819
8.17952,1146
8.18523,740
8.19097,851
8.19668,607
8.2024,1361
8.20813,660
8.21385,947
8.21957,1032
8.22528,843
8.23102,276
8.23673,1113
8.24245,698
8.24818,1032
8.2539,373
8.25962,1068
8.26535,398
8.27107,768
8.27678,1466
8.28252,759
8.28823,602
8.29395,555
8.29968,660
8.3054,781
8.31112,1159
8.31685,1231
8.32257,681
8.32828,461
8.33402,818
8.33973,720
8.34545,894
8.35117,1374
8.3569,1266
8.36262,1003
8.36833,986
8.37407,973
8.37978,708
8.3855,808
8.39123,730
8.39695,449
8.40267,860
8.4084,1431
8.41412,906
8.41983,888
8.42557,924
8.43128,1157
8.437,857
8.44273,849
8.44845,1222
8.45417,856
8.4599,967
8.46562,1302
8.47133,848
8.47705,641
8.48278,866
8.4885,930
8.49422,455
8.49995,627
8.50567,1661
8.51138,1049
8.51712,1264
8.52283,879
8.52855,842
8.53428,1078
8.54,963
8.54572,649
8.55145,1184
8.55717,928
8.56288,1419
8.56862,1185
8.57433,831
8.58005,623
8.58578,677
8.5915,1091
8.59722,1188
8.60293,1509
8.60867,1316
8.61438,780
8.6201,1115
8.62583,1040
8.63155,1189
8.63727,1170
8.643,1124
8.64872,1386
8.65443,861
8.66017,945
8.66588,1117
8.6716,1426
8.67733,1112
8.68305,1070
8.68877,666
8.6945,1104
8.70022,1107
8.70593,906
8.71167,745
8.71738,884
8.7231,1719
8.72882,817
8.73455,1087
8.74027,1342
8.74598,798
8.75172,854
8.75743,1217
8.76315,762
8.76888,996
8.7746,1003
8.78032,933
8.78605,928
8.79177,540
8.79748,1218
8.80322,632
8.80893,1384
8.81465,673
8.82038,967
8.8261,1134
8.83182,1405
8.83755,811
8.84327,1014
8.84898,1746
8.85472,2287
8.86043,1064
8.86615,1489
8.87187,815
8.8776,1425
8.88332,1414
8.88903,912
8.89477,1191
8.90048,1254
8.9062,1512
8.91193,1100
8.91765,1052
8.92337,1134
8.9291,928
8.93482,1694
8.94053,929
8.94627,1275
8.95198,854
8.9577,735
8.96343,1468
8.96915,2347
8.97487,3652
8.9806,4701
8.98632,4520
8.99203,4393
8.99775,3264
9.00348,2759
9.0092,1131
9.01492,1211
9.02065,854
9.02637,969
9.03208,710
9.03782,1038
9.04353,941
9.04925,1096
9.05498,1262
9.0607,1550
9.06642,1656
9.07215,1577
9.07787,1123
9.08358,1867
9.08932,1321
9.09503,1261
9.10075,1299
9.10648,1438
9.1122,683
9.11792,1202
9.12363,1731
9.12937,1318
9.13508,1534
9.1408,1427
9.14653,1668
9.15225,1420
9.15797,1768
9.1637,929
9.16942,1201
9.17513,1182
9.18087,891
9.18658,1043
9.1923,1085
9.19803,1487
9.20375,1511
9.20947,999
9.2152,1056
9.22092,1027
9.22663,1342
9.23237,928
9.23808,1291
9.2438,1338
9.24952,1219
9.25525,867
9.26097,1596
9.26668,842
9.27242,1128
9.27813,908
9.28385,1424
9.28958,1036
9.2953,1074
9.30102,1228
9.30675,792
9.31247,949
9.31818,1046
9.32392,1176
9.32963,1249
9.33535,1595
9.34108,741
9.3468,1001
9.35252,1117
9.35825,1013
9.36397,884
9.36968,1461
9.3754,523
9.38113,1543
9.38685,1659
9.39257,715
9.3983,1926
9.40402,953
9.40973,1240
9.41547,933
9.42118,1700
9.4269,1782
9.43263,1559
9.43835,1016
9.44407,883
9.4498,867
9.45552,1131
9.46123,1635
9.46697,657
9.47268,1269
9.4784,1384
9.48413,1101
9.48985,1599
9.49557,820
9.50128,2898
9.50702,3162
9.51273,2360
9.51845,2381
9.52418,2161
9.5299,2854
9.53562,2627
9.54135,2252
9.54707,3360
9.55278,2878
9.55852,2326
9.56423,1858
9.56995,2593
9.57568,2557
9.5814,2242
9.58712,2547
9.59285,2556
9.59857,2479
9.60428,2507
9.61002,2281
9.61573,1661
9.62145,2662
9.62717,2310
9.6329,2559
9.63862,1589
9.64433,2982
9.65007,2612
9.65578,2864
9.6615,1597
9.66723,2437
9.67295,1923
9.67867,1762
9.6844,2595
9.69012,2322
9.69583,2570
9.70157,2266
9.70728,2447
9.713,2894
9.71873,2089
9.72445,2176
9.73017,2742
9.7359,2297
9.74162,2313
9.74733,2493
9.75305,3077
9.75878,3162
9.7645,3092
9.77022,3134
9.77595,2991
9.78167,3242
9.78738,3288
9.79312,3333
9.79883,3369
9.80455,3259
9.81028,2760
9.816,2906
9.82172,2871
9.82745,3984
9.83317,3242
9.83888,2908
9.84462,2845
9.85033,2990
9.85605,2541
9.86178,1905
9.8675,2516
9.87322,2216
9.87893,2469
9.88467,3146
9.89038,3107
9.8961,2302
9.90183,2796
9.90755,3331
9.91327,2538
9.919,2567
9.92472,2452
9.93043,3077
9.93617,3204
9.94188,2610
9.9476,3195
9.95333,3426
9.95905,3217
9.96477,3464
9.9705,3412
9.97622,3114
9.98193,2495
9.98767,2481
9.99338,3041
9.9991,2986
10.0048,2341
10.0106,2969
10.0163,2293
10.022,2742
10.0277,3058
10.0334,2148
10.0392,2466
10.0449,1717
10.0506,2104
10.0563,2509
10.0621,2528
10.0678,3013
10.0735,1873
10.0792,2562
10.0849,3226
10.0907,2554
10.0964,3071
10.1021,1918
10.1078,2272
10.1136,1473
10.1193,2653
10.125,2829
10.1307,1719
10.1364,1619
10.1422,2978
10.1479,2797
10.1536,2704
10.1593,2716
10.165,2325
10.1708,2046
10.1765,2790
10.1822,2518
10.1879,2611
10.1937,2407
10.1994,2717
10.2051,2830
10.2108,3001
10.2165,2227
10.2223,2416
10.228,2064
10.2337,3008
10.2394,2168
10.2452,2312
10.2509,2589
10.2566,1754
10.2623,1571
10.268,2253
10.2738,1636
10.2795,1928
10.2852,1636
10.2909,1723
10.2967,1481
10.3024,1667
10.3081,1964
10.3138,1089
10.3195,1307
10.3253,1793
10.331,1616
10.3367,1418
10.3424,956
10.3482,1015
10.3539,1585
10.3596,1505
10.3653,1204
10.371,1827
10.3768,1656
10.3825,1047
10.3882,1677
10.3939,1511
10.3996,2091
10.4054,1643
10.4111,2450
10.4168,2745
10.4225,4496
10.4283,4177
10.434,4120
10.4397,2141
10.4454,1916
10.4511,1088
10.4569,1641
10.4626,1359
10.4683,1480
10.474,1114
10.4798,1452
10.4855,1439
10.4912,1479
10.4969,911
10.5026,1084
10.5084,1997
10.5141,1653
10.5198,1482
10.5255,1629
10.5313,1469
10.537,1778
10.5427,1730
10.5484,1792
10.5541,2055
10.5599,1218
10.5656,1624
10.5713,1981
10.577,2367
10.5828,5319
10.5885,7599
10.5942,9596
10.5999,12064
10.6056,9478
10.6114,6671
10.6171,3104
10.6228,2145
10.6285,1793
10.6342,1594
10.64,3050
10.6457,1878
10.6514,2500
10.6571,2009
10.6629,2278
10.6686,1817
10.6743,1403
10.68,1141
10.6857,1838
10.6915,1650
10.6972,1519
10.7029,1483
10.7086,1656
10.7144,1367
10.7201,1926
10.7258,1723
10.7315,1993
10.7372,1274
10.743,1244
10.7487,778
10.7544,2039
10.7601,1798
10.7659,1554
10.7716,1518
10.7773,1744
10.783,2091
10.7887,1760
10.7945,833
10.8002,1435
10.8059,1427
10.8116,1274
10.8174,1385
10.8231,1443
10.8288,2013
10.8345,1767
10.8402,1748
10.846,2527
10.8517,2027
10.8574,1761
10.8631,1807
10.8689,1483
10.8746,1672
10.8803,2415
10.886,3487
10.8917,3618
10.8975,4290
10.9032,3371
10.9089,2418
10.9146,2195
10.9203,1279
10.9261,1748
10.9318,1379
10.9375,1457
10.9432,1811
10.949,1319
10.9547,2029
10.9604,1573
10.9661,2162
10.9718,2544
10.9776,1944
10.9833,2751
10.989,1834
10.9947,2505
11.0005,2654
11.0062,1787
11.0119,2338
11.0176,2586
11.0233,3436
11.0291,2546
11.0348,3363
11.0405,2226
11.0462,2528
11.052,3379
11.0577,3421
11.0634,3072
11.0691,2191
11.0748,2676
11.0806,2633
11.0863,2543
11.092,2429
11.0977,2635
11.1035,2728
11.1092,3163
11.1149,3064
11.1206,3133
11.1263,5053
11.1321,6584
11.1378,5202
11.1435,4672
11.1492,5303
11.1549,6991
11.1607,16837
11.1664,29698
11.1721,44626
11.1778,45752
11.1836,39864
11.1893,29428
11.195,25246
11.2007,20786
11.2064,17873
11.2122,16229
11.2179,14321
11.2236,12983
11.2293,13302
11.2351,10595
11.2408,10408
11.2465,9942
11.2522,9668
11.2579,8972
11.2637,8578
11.2694,8104
11.2751,6813
11.2808,8998
11.2866,7620
11.2923,6484
11.298,6293
11.3037,6783
11.3094,6468
11.3152,6696
11.3209,6577
11.3266,6447
11.3323,6087
11.3381,6492
11.3438,5835
11.3495,6423
11.3552,5001
11.3609,5529
11.3667,4779
11.3724,4986
11.3781,4459
11.3838,4886
11.3895,5708
11.3953,4319
11.401,4653
11.4067,4516
11.4124,5198
11.4182,5570
11.4239,4661
11.4296,3908
11.4353,5609
11.441,5532
11.4468,5204
11.4525,6323
11.4582,5071
11.4639,5786
11.4697,5442
11.4754,4619
11.4811,4020
11.4868,3612
11.4925,5023
11.4983,3666
11.504,3957
11.5097,4176
11.5154,4200
11.5212,3920
11.5269,4129
11.5326,3793
11.5383,3142
11.544,4798
11.5498,3830
11.5555,2720
11.5612,3717
11.5669,3156
11.5727,3315
11.5784,4552
11.5841,3394
11.5898,4039
11.5955,3701
11.6013,4180
11.607,3263
11.6127,4213
11.6184,2816
11.6242,3286
11.6299,3216
11.6356,3535
11.6413,3524
11.647,3297
11.6528,3801
11.6585,3830
11.6642,3376
11.6699,3332
11.6756,2842
11.6814,3826
11.6871,3962
11.6928,3340
11.6985,4914
11.7043,4546
11.71,6056
11.7157,6253
11.7214,5132
11.7271,3180
11.7329,3092
11.7386,3814
11.7443,3982
11.75,3492
11.7558,3524
11.7615,2728
11.7672,2436
11.7729,2864
11.7786,3060
11.7844,3932
11.7901,3081
11.7958,3170
11.8015,3114
11.8073,3353
11.813,2986
11.8187,3684
11.8244,3471
11.8301,2793
11.8359,3970
11.8416,3268
11.8473,3277
11.853,3820
11.8588,3596
11.8645,3614
11.8702,3334
11.8759,2949
11.8816,3205
11.8874,2613
11.8931,3373
11.8988,3524
11.9045,3531
11.9102,3055
11.916,3116
11.9217,3206
11.9274,3166
11.9331,3347
11.9389,3700
11.9446,3769
11.9503,2764
11.956,3040
11.9617,3799
11.9675,3446
11.9732,2830
11.9789,3871
11.9846,3332
11.9904,2376
11.9961,3045
12.0018,4015
12.0075,3843
12.0132,3136
12.019,3544
12.0247,3320
12.0304,2795
12.0361,3495
12.0419,3539
12.0476,3552
12.0533,2641
12.059,3653
12.0647,3272
12.0705,4015
12.0762,4230
12.0819,3655
12.0876,3853
12.0934,5678
12.0991,5481
12.1048,5431
12.1105,4627
12.1162,3708
12.122,4137
12.1277,3426
12.1334,3032
12.1391,2817
12.1448,2953
12.1506,3995
12.1563,3758
12.162,3321
12.1677,2665
12.1735,3628
12.1792,3591
12.1849,3766
12.1906,3688
12.1963,3696
12.2021,3341
12.2078,2933
12.2135,3189
12.2192,3234
12.225,2975
12.2307,3997
12.2364,3902
12.2421,3229
12.2478,3771
12.2536,3889
12.2593,3005
12.265,4131
12.2707,4508
12.2765,4107
12.2822,3676
12.2879,3868
12.2936,4103
12.2993,4081
12.3051,3994
12.3108,3883
12.3165,3771
12.3222,3757
12.328,3733
12.3337,4299
12.3394,4005
12.3451,4088
12.3508,4153
12.3566,3833
12.3623,4184
12.368,4558
12.3737,4378
12.3795,4230
12.3852,4860
12.3909,5084
12.3966,4694
12.4023,4100
12.4081,3534
12.4138,4833
12.4195,4273
12.4252,4308
12.4309,4501
12.4367,5035
12.4424,4900
12.4481,4645
12.4538,5354
12.4596,6083
12.4653,6485
12.471,9010
12.4767,8566
12.4824,8802
12.4882,8721
12.4939,8285
12.4996,9102
12.5053,8124
12.5111,11323
12.5168,13562
12.5225,18415
12.5282,31360
12.5339,40122
12.5397,46576
12.5454,45158
12.5511,43100
12.5568,39361
12.5626,36534
12.5683,35327
12.574,33223
12.5797,29571
12.5854,28057
12.5912,25476
12.5969,23106
12.6026,21238
12.6083,20383
12.6141,18637
12.6198,18026
12.6255,17287
12.6312,17033
12.6369,15778
12.6427,14371
12.6484,14585
12.6541,14224
12.6598,12926
12.6655,13055
12.6713,12736
12.677,11951
12.6827,12451
12.6884,12262
12.6942,12341
12.6999,12078
12.7056,12827
12.7113,13292
12.717,14741
12.7228,17095
12.7285,19095
12.7342,19389
12.7399,16984
12.7457,16451
12.7514,14871
12.7571,14807
12.7628,14490
12.7685,13535
12.7743,13164
12.78,12456
12.7857,10952
12.7914,11029
12.7972,11755
12.8029,10598
12.8086,11814
12.8143,10808
12.82,10148
12.8258,9978
12.8315,10223
12.8372,9921
12.8429,9533
12.8487,9413
12.8544,9895
12.8601,8920
12.8658,9021
12.8715,9357
12.8773,10228
12.883,10810
12.8887,10720
12.8944,10156
12.9002,10200
12.9059,8972
12.9116,7943
12.9173,7376
12.923,8092
12.9288,8261
12.9345,8224
12.9402,8052
12.9459,7761
12.9516,7738
12.9574,8398
12.9631,7378
12.9688,7600
12.9745,7625
12.9803,7187
12.986,8586
12.9917,6827
12.9974,7492
13.0031,7266
13.0089,7829
13.0146,8384
13.0203,7407
13.026,8040
13.0318,7979
13.0375,6413
13.0432,8224
13.0489,8234
13.0546,7050
13.0604,7303
13.0661,7371
13.0718,7730
13.0775,7209
13.0833,7639
13.089,6983
13.0947,7028
13.1004,8212
13.1061,7474
13.1119,8207
13.1176,8042
13.1233,8577
13.129,7845
13.1348,7469
13.1405,7761
13.1462,7655
13.1519,6608
13.1576,7262
13.1634,7292
13.1691,7897
13.1748,6806
13.1805,7706
13.1862,8055
13.192,6400
13.1977,7056
13.2034,8930
13.2091,8251
13.2149,7668
13.2206,7322
13.2263,6191
13.232,7789
13.2377,7989
13.2435,6439
13.2492,7232
13.2549,6801
13.2606,6811
13.2664,7653
13.2721,8166
13.2778,8568
13.2835,7431
13.2892,6687
13.295,7869
13.3007,6767
13.3064,7481
13.3121,7847
13.3179,8807
13.3236,6336
13.3293,7252
13.335,7416
13.3407,6890
13.3465,7371
13.3522,9562
13.3579,8361
13.3636,9261
13.3694,8852
13.3751,7955
13.3808,8267
13.3865,6845
13.3922,7995
13.398,6524
13.4037,8998
13.4094,7632
13.4151,6935
13.4208,7881
13.4266,7360
13.4323,6528
13.438,7122
13.4437,7991
13.4495,7228
13.4552,7749
13.4609,8496
13.4666,7131
13.4723,9109
13.4781,7711
13.4838,6840
13.4895,8444
13.4952,7833
13.501,8172
13.5067,7425
13.5124,7308
13.5181,7896
13.5238,7849
13.5296,7522
13.5353,7343
13.541,8277
13.5467,8115
13.5525,8292
13.5582,7866
13.5639,7786
13.5696,8571
13.5753,8488
13.5811,8259
13.5868,7646
13.5925,8632
13.5982,6934
13.604,8678
13.6097,8257
13.6154,8164
13.6211,9172
13.6268,7930
13.6326,8738
13.6383,8391
13.644,8579
13.6497,7275
13.6555,8370
13.6612,9861
13.6669,8367
13.6726,8367
13.6783,7867
13.6841,8836
13.6898,9011
13.6955,8502
13.7012,9091
13.7069,8321
13.7127,8916
13.7184,8262
13.7241,7682
13.7298,8494
13.7356,7857
13.7413,8627
13.747,6968
13.7527,8451
13.7584,8218
13.7642,7527
13.7699,8309
13.7756,8129
13.7813,9135
13.7871,8281
13.7928,8975
13.7985,8738
13.8042,7163
13.8099,8067
13.8157,8555
13.8214,9022
13.8271,9082
13.8328,10148
13.8386,9677
13.8443,8903
13.85,9680
13.8557,8211
13.8614,9322
13.8672,8023
13.8729,8322
13.8786,9651
13.8843,9474
13.8901,9460
13.8958,8883
13.9015,9032
13.9072,9188
13.9129,9703
13.9187,9137
13.9244,8317
13.9301,7803
13.9358,10416
13.9415,9350
13.9473,10148
13.953,11144
13.9587,12074
13.9644,11869
13.9702,10137
13.9759,9805
13.9816,9418
13.9873,9798
13.993,9537
13.9988,8664
14.0045,9638
14.0102,10507
14.0159,9946
14.0217,9470
14.0274,10326
14.0331,10204
14.0388,9976
14.0445,9378
14.0503,8056
14.056,9191
14.0617,9044
14.0674,8817
14.0732,9153
14.0789,8635
14.0846,9360
14.0903,9278
14.096,9082
14.1018,9654
14.1075,9485
14.1132,9497
14.1189,9049
14.1247,9226
14.1304,9906
14.1361,9498
14.1418,9181
14.1475,10049
14.1533,9128
14.159,8489
14.1647,9294
14.1704,8836
14.1761,8918
14.1819,9795
14.1876,8951
14.1933,9765
14.199,9381
14.2048,9984
14.2105,9293
14.2162,9159
14.2219,10322
14.2276,9738
14.2334,10586
14.2391,9826
14.2448,10953
14.2505,9713
14.2563,9840
14.262,10406
14.2677,9624
14.2734,9766
14.2791,9738
14.2849,10905
14.2906,12066
14.2963,9559
14.302,10278
14.3078,10707
14.3135,11411
14.3192,10991
14.3249,11194
14.3306,11492
14.3364,11101
14.3421,10233
14.3478,10920
14.3535,11065
14.3593,11186
14.365,10530
14.3707,11286
14.3764,10502
14.3821,10785
14.3879,11027
14.3936,11782
14.3993,11200
14.405,10255
14.4108,10264
14.4165,11555
14.4222,11986
14.4279,10523
14.4336,12554
14.4394,11090
14.4451,12112
14.4508,10792
14.4565,11628
14.4622,12017
14.468,13187
14.4737,13030
14.4794,11998
14.4851,13486
14.4909,12615
14.4966,12386
14.5023,12258
14.508,11623
14.5137,11798
14.5195,12273
14.5252,12077
14.5309,11760
14.5366,14001
14.5424,12078
14.5481,12520
14.5538,12862
14.5595,12997
14.5652,12387
14.571,10827
14.5767,10726
14.5824,11953
14.5881,12450
14.5939,12660
14.5996,12425
14.6053,13731
14.611,11945
14.6167,10910
14.6225,11992
14.6282,12592
14.6339,11615
14.6396,11621
14.6454,10932
14.6511,13533
14.6568,14283
14.6625,12491
14.6682,13050
14.674,13002
14.6797,13397
14.6854,14501
14.6911,12922
14.6968,12659
14.7026,12553
14.7083,13323
14.714,12472
14.7197,13373
14.7255,14691
14.7312,13039
14.7369,13752
14.7426,14407
14.7483,13857
14.7541,13764
14.7598,14184
14.7655,13097
14.7712,14022
14.777,14697
14.7827,15342
14.7884,15096
14.7941,15247
14.7998,14978
14.8056,14396
14.8113,14188
14.817,14258
14.8227,16057
14.8285,15403
14.8342,14623
14.8399,14585
14.8456,15587
14.8513,14410
14.8571,14268
14.8628,14495
14.8685,14527
14.8742,15435
14.88,14946
14.8857,15068
14.8914,15749
14.8971,17664
14.9028,16302
14.9086,18258
14.9143,17618
14.92,17527
14.9257,16885
14.9314,17369
14.9372,16984
14.9429,18946
14.9486,18163
14.9543,18849
14.9601,18320
14.9658,16556
14.9715,15136
14.9772,16686
14.9829,16133
14.9887,16653
14.9944,15970
15.0001,16270
15.0058,16784
15.0116,16568
15.0173,16480
15.023,18211
15.0287,15951
15.0344,17332
15.0402,17099
15.0459,16661
15.0516,17243
15.0573,16247
15.0631,17104
15.0688,17674
15.0745,16103
15.0802,17240
15.0859,16751
15.0917,18006
15.0974,18353
15.1031,16739
15.1088,18039
15.1146,16922
15.1203,17292
15.126,16175
15.1317,16897
15.1374,17752
15.1432,17624
15.1489,17760
15.1546,18776
15.1603,17896
15.1661,19617
15.1718,19376
15.1775,19738
15.1832,19226
15.1889,18543
15.1947,17617
15.2004,18969
15.2061,17505
15.2118,19296
15.2175,19824
15.2233,18376
15.229,18753
15.2347,19011
15.2404,19331
15.2462,19500
15.2519,20011
15.2576,19041
15.2633,19942
15.269,19598
15.2748,19133
15.2805,19358
15.2862,18871
15.2919,18567
15.2977,18690
15.3034,19180
15.3091,18565
15.3148,18894
15.3205,19114
15.3263,19203
15.332,19973
15.3377,19387
15.3434,19070
15.3492,19760
15.3549,22110
15.3606,21419
15.3663,20538
15.372,21894
15.3778,21818
15.3835,22134
15.3892,21340
15.3949,22093
15.4007,21007
15.4064,22595
15.4121,21389
15.4178,21815
15.4235,21628
15.4293,22884
15.435,21031
15.4407,21987
15.4464,20521
15.4521,22100
15.4579,23320
15.4636,21790
15.4693,23418
15.475,20680
15.4808,23086
15.4865,22672
15.4922,23435
15.4979,22652
15.5036,23408
15.5094,23749
15.5151,23568
15.5208,24096
15.5265,22779
15.5323,23015
15.538,22035
15.5437,23813
15.5494,22967
15.5551,23503
15.5609,23996
15.5666,23362
15.5723,23239
15.578,24336
15.5838,24437
15.5895,22833
15.5952,23653
15.6009,22612
15.6066,25085
15.6124,24404
15.6181,23975
15.6238,24276
15.6295,26243
15.6353,26190
15.641,24465
15.6467,26105
15.6524,25968
15.6581,25550
15.6639,25441
15.6696,25462
15.6753,26527
15.681,25274
15.6867,25302
15.6925,25757
15.6982,24701
15.7039,25473
15.7096,25842
15.7154,27285
15.7211,25808
15.7268,26265
15.7325,26869
15.7382,25499
15.744,25746
15.7497,26648
15.7554,27839
15.7611,25806
15.7669,26928
15.7726,25912
15.7783,25600
15.784,27243
15.7897,28395
15.7955,27567
15.8012,28797
15.8069,28390
15.8126,29226
15.8184,28869
15.8241,29521
15.8298,28938
15.8355,28787
15.8412,29007
15.847,28939
15.8527,29790
15.8584,29743
15.8641,30900
15.8699,30711
15.8756,32684
15.8813,32589
15.887,33379
15.8927,32544
15.8985,29451
15.9042,31816
15.9099,29792
15.9156,30382
15.9214,30700
15.9271,31256
15.9328,30378
15.9385,30734
15.9442,30094
15.95,30055
15.9557,30303
15.9614,31615
15.9671,32156
15.9728,31546
15.9786,33306
15.9843,31413
15.99,32333
15.9957,32934
16.0014,31646
16.0072,33449
16.0129,32484
16.0186,34452
16.0243,34656
16.0301,32113
16.0358,33558
16.0415,33531
16.0472,34532
16.0529,34110
16.0587,35806
16.0644,34854
16.0701,32988
16.0758,33780
16.0816,34855
16.0873,35262
16.093,36252
16.0987,37599
16.1045,36293
16.1102,34230
16.1159,36762
16.1216,33651
16.1273,35983
16.1331,35640
16.1388,34858
16.1445,37704
16.1502,37377
16.156,37811
16.1617,38683
16.1674,37268
16.1731,37824
16.1788,38028
16.1846,35810
16.1903,40247
16.196,40000
16.2017,37819
16.2074,37535
16.2132,37884
16.2189,37862
16.2246,38423
16.2303,39352
16.236,36459
16.2418,37891
16.2475,36117
16.2532,38468
16.2589,39133
16.2647,38130
16.2704,39908
16.2761,39258
16.2818,39582
16.2876,39633
16.2933,40589
16.299,39533
16.3047,40545
16.3104,41384
16.3162,41344
16.3219,40562
16.3276,41351
16.3333,40244
16.3391,42120
16.3448,43860
16.3505,42829
16.3562,41553
16.3619,42738
16.3677,41211
16.3734,42281
16.3791,40728
16.3848,41736
16.3906,42542
16.3963,42683
16.402,40924
16.4077,40920
16.4134,42114
16.4191,45100
16.4249,41772
16.4306,44646
16.4363,43872
16.442,45252
16.4478,45018
16.4535,45662
16.4592,44492
16.4649,43814
16.4706,43809
16.4764,44422
16.4821,44087
16.4878,44300
16.4935,46916
16.4993,45325
16.505,44070
16.5107,44817
16.5164,45261
16.5222,45980
16.5279,48844
16.5336,49235
16.5393,48073
16.545,47167
16.5508,48537
16.5565,49109
16.5622,46923
16.5679,49946
16.5737,47682
16.5794,49766
16.5851,48683
16.5908,50283
16.5965,46208
16.6023,49497
16.608,51070
16.6137,50236
16.6194,49733
16.6252,50627
16.6309,48918
16.6366,48749
16.6423,52100
16.648,49327
16.6537,50221
16.6595,50227
16.6652,51880
16.6709,52410
16.6766,52735
16.6824,52308
16.6881,52539
16.6938,51758
16.6995,51871
16.7052,50937
16.711,50229
16.7167,52917
16.7224,55516
16.7281,52017
16.7339,55757
16.7396,57520
16.7453,56044
16.751,57479
16.7568,59022
16.7625,54788
16.7682,56674
16.7739,57039
16.7796,56064
16.7854,52374
16.7911,54969
16.7968,53465
16.8025,56792
16.8083,55038
16.814,56664
16.8197,56057
16.8254,58125
16.8311,57999
16.8368,59819
16.8426,59703
16.8483,57674
16.854,57826
16.8597,59829
16.8655,58838
16.8712,60596
16.8769,57893
16.8826,56696
16.8883,57858
16.8941,58850
16.8998,57392
16.9055,58576
16.9112,59027
16.917,59558
16.9227,60293
16.9284,59026
16.9341,59007
16.9399,61768
16.9456,64857
16.9513,60427
16.957,60959
16.9627,62248
16.9685,62279
16.9742,61624
16.9799,62294
16.9856,61496
16.9914,60443
16.9971,65180
17.0028,63416
17.0085,63645
17.0142,64932
17.02,63247
17.0257,64987
17.0314,61762
17.0371,62835
17.0429,64234
17.0486,61892
17.0543,65362
17.06,67139
17.0657,66542
17.0715,63993
17.0772,63867
17.0829,66158
17.0886,67359
17.0943,68752
17.1001,68722
17.1058,68309
17.1115,67206
17.1172,67261
17.1229,69258
17.1287,68479
17.1344,68903
17.1401,68346
17.1458,66672
17.1516,69851
17.1573,68435
17.163,68175
17.1687,67430
17.1745,67736
17.1802,66921
17.1859,67011
17.1916,68857
17.1974,68383
17.2031,66281
17.2088,70013
17.2145,70914
17.2202,68296
17.226,66556
17.2317,68915
17.2374,68008
17.2431,68154
17.2488,68733
17.2546,67093
17.2603,69467
17.266,70265
17.2717,69576
17.2775,68740
17.2832,66783
17.2889,67406
17.2946,68488
17.3003,70134
17.3061,72744
17.3118,71288
17.3175,69465
17.3232,71425
17.3289,70888
17.3347,71817
17.3404,70356
17.3461,71160
17.3518,70383
17.3576,67516
17.3633,70512
17.369,70630
17.3747,71324
17.3805,71108
17.3862,71947
17.3919,71002
17.3976,70706
17.4033,67880
17.4091,71569
17.4148,72293
17.4205,69940
17.4262,72165
17.432,70740
17.4377,67872
17.4434,70082
17.4491,72586
17.4548,72517
17.4606,72548
17.4663,71422
17.472,72830
17.4777,70977
17.4834,73894
17.4892,71344
17.4949,73279
17.5006,70749
17.5063,72701
17.5121,71773
17.5178,74575
17.5235,72894
17.5292,70918
17.5349,73706
17.5407,75549
17.5464,75010
17.5521,73888
17.5578,70907
17.5635,72477
17.5693,73245
17.575,73674
17.5807,73279
17.5864,75587
17.5922,76169
17.5979,76313
17.6036,77413
17.6093,77457
17.6151,77259
17.6208,72380
17.6265,73215
17.6322,71939
17.6379,72207
17.6437,74486
17.6494,72495
17.6551,74809
17.6608,74738
17.6666,73923
17.6723,73629
17.678,74012
17.6837,73627
17.6894,75320
17.6952,74085
17.7009,74532
17.7066,75175
17.7123,75765
17.718,75992
17.7238,75813
17.7295,75577
17.7352,74886
17.7409,75912
17.7467,74086
17.7524,76562
17.7581,75363
17.7638,74624
17.7695,75875
17.7753,74944
17.781,76796
17.7867,74290
17.7924,75246
17.7982,74236
17.8039,73870
17.8096,76057
17.8153,75398
17.821,77582
17.8268,75807
17.8325,76480
17.8382,75509
17.8439,74985
17.8497,75598
17.8554,75668
17.8611,77222
17.8668,73116
17.8725,76344
17.8783,76807
17.884,75462
17.8897,74130
17.8954,74576
17.9012,74103
17.9069,74284
17.9126,74913
17.9183,76856
17.924,76000
17.9298,75052
17.9355,73242
17.9412,78685
17.9469,78464
17.9527,77412
17.9584,77364
17.9641,73968
17.9698,75101
17.9755,76456
17.9812,76358
17.987,75387
17.9927,75764
