C:\MSDCHEM\1\DATA\SERINA\20170928 LACTONE_STD_CURVE\4.d 28 Sep 17   3:55 pm
Start of data points
5.09225,81186
5.09798,80048
5.1037,81750
5.10942,85449
5.11515,81185
5.12087,83315
5.12658,81871
5.13232,81991
5.13803,82290
5.14375,86357
5.14948,87930
5.1552,87799
5.16092,88179
5.16665,86556
5.17237,87854
5.17808,85186
5.1838,87908
5.18953,87420
5.19525,82430
5.20097,82024
5.2067,82230
5.21242,79377
5.21813,76729
5.22387,73634
5.22958,72442
5.2353,70032
5.24103,68615
5.24675,66411
5.25247,64353
5.2582,61082
5.26392,61400
5.26963,59189
5.27537,57534
5.28108,57199
5.2868,56812
5.29253,54557
5.29825,53514
5.30397,52621
5.30968,53579
5.31542,48905
5.32113,51471
5.32685,48165
5.33258,48818
5.3383,48462
5.34402,50668
5.34975,49070
5.35547,47996
5.36118,47388
5.36692,47668
5.37263,47271
5.37835,47058
5.38408,45073
5.3898,44834
5.39552,42671
5.40125,46104
5.40697,44826
5.41268,43431
5.41842,43929
5.42413,44898
5.42985,45730
5.43557,44055
5.4413,43866
5.44702,43296
5.45273,48241
5.45847,46524
5.46418,44820
5.4699,42466
5.47563,43661
5.48135,42239
5.48707,41630
5.4928,40177
5.49852,44685
5.50423,42356
5.50997,41667
5.51568,42113
5.5214,43538
5.52713,40441
5.53285,43233
5.53857,39347
5.5443,37903
5.55002,41100
5.55573,39782
5.56145,38971
5.56718,37833
5.5729,40414
5.57862,39259
5.58435,40790
5.59007,38497
5.59578,39641
5.60152,38529
5.60723,39365
5.61295,38984
5.61868,37721
5.6244,40247
5.63012,37951
5.63585,38796
5.64157,35607
5.64728,37257
5.65302,38281
5.65873,39261
5.66445,37254
5.67018,37384
5.6759,36899
5.68162,36391
5.68733,38269
5.69307,37274
5.69878,35973
5.7045,36847
5.71023,37586
5.71595,36897
5.72167,39298
5.7274,37572
5.73312,38458
5.73883,34978
5.74457,35789
5.75028,34423
5.756,36089
5.76173,36658
5.76745,35786
5.77317,35889
5.7789,35617
5.78462,36699
5.79033,35192
5.79607,35494
5.80178,36363
5.8075,35109
5.81322,35850
5.81895,36956
5.82467,35341
5.83038,37339
5.83612,38693
5.84183,38469
5.84755,36916
5.85328,39277
5.859,35580
5.86472,34333
5.87045,34673
5.87617,34380
5.88188,36054
5.88762,33925
5.89333,34901
5.89905,34879
5.90478,34082
5.9105,34292
5.91622,34578
5.92195,33726
5.92767,32698
5.93338,30692
5.9391,32851
5.94483,33782
5.95055,33769
5.95627,32442
5.962,33027
5.96772,33859
5.97343,33179
5.97917,32397
5.98488,33662
5.9906,35977
5.99633,35119
6.00205,36675
6.00777,39022
6.0135,35411
6.01922,37670
6.02493,35331
6.03067,34931
6.03638,33653
6.0421,32292
6.04783,32474
6.05355,31111
6.05927,33348
6.065,32059
6.07072,30884
6.07643,32008
6.08215,31357
6.08788,32826
6.0936,33276
6.09932,30790
6.10505,30238
6.11077,31047
6.11648,30425
6.12222,29562
6.12793,29467
6.13365,31149
6.13938,30293
6.1451,29075
6.15082,29561
6.15655,30157
6.16227,30278
6.16798,30220
6.17372,29340
6.17943,28649
6.18515,29492
6.19088,29026
6.1966,30315
6.20232,29641
6.20803,27705
6.21377,30163
6.21948,29392
6.2252,27539
6.23093,29227
6.23665,29039
6.24237,29187
6.2481,28545
6.25382,28980
6.25953,30988
6.26527,28718
6.27098,28599
6.2767,31023
6.28243,28761
6.28815,29575
6.29387,29902
6.2996,26827
6.30532,27869
6.31103,29280
6.31677,29288
6.32248,29129
6.3282,30422
6.33392,29659
6.33965,27964
6.34537,29352
6.35108,29566
6.35682,29469
6.36253,28469
6.36825,29591
6.37398,29910
6.3797,27980
6.38542,27572
6.39115,27730
6.39687,26019
6.40258,28782
6.40832,27488
6.41403,28247
6.41975,26638
6.42548,28355
6.4312,27614
6.43692,26898
6.44265,27326
6.44837,28861
6.45408,26847
6.4598,28945
6.46553,26232
6.47125,27441
6.47697,27409
6.4827,27055
6.48842,27091
6.49413,27937
6.49987,28276
6.50558,28735
6.5113,26918
6.51703,27735
6.52275,26688
6.52847,26578
6.5342,26218
6.53992,26908
6.54563,27240
6.55137,27534
6.55708,27132
6.5628,28255
6.56853,26810
6.57425,27056
6.57997,26388
6.58568,25698
6.59142,26501
6.59713,26910
6.60285,26577
6.60858,26531
6.6143,27055
6.62002,26703
6.62575,27910
6.63147,27397
6.63718,25921
6.64292,27132
6.64863,26505
6.65435,26230
6.66008,27784
6.6658,26519
6.67152,25266
6.67725,26635
6.68297,27089
6.68868,26225
6.69442,26174
6.70013,27095
6.70585,27215
6.71157,25371
6.7173,26270
6.72302,26573
6.72873,25759
6.73447,26747
6.74018,26879
6.7459,25380
6.75163,25046
6.75735,24577
6.76307,25685
6.7688,26331
6.77452,24399
6.78023,25459
6.78597,25162
6.79168,27222
6.7974,25911
6.80313,23074
6.80885,25230
6.81457,24127
6.8203,26694
6.82602,24288
6.83173,24679
6.83745,25645
6.84318,25145
6.8489,26264
6.85462,25325
6.86035,25081
6.86607,24374
6.87178,25805
6.87752,25325
6.88323,25316
6.88895,26736
6.89468,24672
6.9004,24399
6.90612,24965
6.91185,23576
6.91757,24220
6.92328,23360
6.92902,25329
6.93473,23099
6.94045,22981
6.94618,24357
6.9519,25165
6.95762,24127
6.96333,24296
6.96907,23096
6.97478,24360
6.9805,23750
6.98623,25021
6.99195,26888
6.99767,24069
7.0034,24987
7.00912,25128
7.01483,24280
7.02057,24309
7.02628,23525
7.032,24592
7.03773,25297
7.04345,23506
7.04917,24596
7.0549,24626
7.06062,24814
7.06633,24280
7.07207,23883
7.07778,24626
7.0835,22040
7.08922,24072
7.09495,22440
7.10067,24351
7.10638,22694
7.11212,22672
7.11783,24463
7.12355,25841
7.12928,23974
7.135,25129
7.14072,24211
7.14645,24343
7.15217,22893
7.15788,25396
7.16362,24837
7.16933,23662
7.17505,22948
7.18078,22584
7.1865,22054
7.19222,24943
7.19795,25457
7.20367,22573
7.20938,24500
7.2151,24867
7.22083,24457
7.22655,24031
7.23227,23864
7.238,24138
7.24372,24979
7.24943,23546
7.25517,23266
7.26088,23830
7.2666,23987
7.27233,23660
7.27805,23741
7.28377,23026
7.2895,22563
7.29522,24156
7.30093,22684
7.30667,24304
7.31238,24260
7.3181,23460
7.32383,24762
7.32955,22704
7.33527,24139
7.34098,22678
7.34672,24379
7.35243,25242
7.35815,22910
7.36388,23758
7.3696,22602
7.37532,23070
7.38105,23291
7.38677,23971
7.39248,21817
7.39822,24112
7.40393,24730
7.40965,21558
7.41538,23885
7.4211,23396
7.42682,23574
7.43255,22839
7.43827,23818
7.44398,23233
7.44972,23415
7.45543,24846
7.46115,23927
7.46687,24772
7.4726,23379
7.47832,22644
7.48403,23759
7.48977,23037
7.49548,23677
7.5012,21962
7.50693,22703
7.51265,21668
7.51837,23434
7.5241,23353
7.52982,24045
7.53553,23155
7.54127,21998
7.54698,22898
7.5527,22214
7.55843,22646
7.56415,24151
7.56987,26302
7.5756,29096
7.58132,31565
7.58703,30389
7.59275,31020
7.59848,28206
7.6042,26912
7.60992,25335
7.61565,24827
7.62137,23303
7.62708,23931
7.63282,24316
7.63853,23529
7.64425,24733
7.64998,24304
7.6557,21864
7.66142,26329
7.66715,23757
7.67287,24013
7.67858,24362
7.68432,22244
7.69003,21993
7.69575,21904
7.70148,21443
7.7072,21780
7.71292,23573
7.71863,22325
7.72437,23152
7.73008,23064
7.7358,23442
7.74153,22702
7.74725,24659
7.75297,24333
7.7587,23243
7.76442,23596
7.77013,22309
7.77587,21363
7.78158,22990
7.7873,22613
7.79303,23427
7.79875,23844
7.80447,22196
7.8102,21984
7.81592,22909
7.82163,21974
7.82737,22565
7.83308,22616
7.8388,22882
7.84452,23256
7.85025,22442
7.85597,22419
7.86168,22784
7.86742,23138
7.87313,23282
7.87885,21661
7.88458,19726
7.8903,21189
7.89602,22760
7.90175,22045
7.90747,21182
7.91318,21911
7.91892,23454
7.92463,25509
7.93035,24881
7.93608,25502
7.9418,23623
7.94752,21788
7.95325,23986
7.95897,23705
7.96468,23141
7.9704,22123
7.97613,21965
7.98185,22855
7.98757,23079
7.9933,21267
7.99902,22407
8.00473,21641
8.01047,21394
8.01618,22070
8.0219,22604
8.02763,21726
8.03335,22097
8.03907,23102
8.0448,22901
8.05052,22159
8.05623,22706
8.06197,22851
8.06768,22603
8.0734,21664
8.07913,23991
8.08485,22890
8.09057,21801
8.09628,20835
8.10202,22014
8.10773,23644
8.11345,22064
8.11918,23624
8.1249,21601
8.13062,22013
8.13635,23079
8.14207,21112
8.14778,22539
8.15352,23724
8.15923,22867
8.16495,22043
8.17068,22892
8.1764,21780
8.18212,21435
8.18785,21348
8.19357,21891
8.19928,21822
8.20502,21489
8.21073,21242
8.21645,21612
8.22217,23026
8.2279,22345
8.23362,21368
8.23933,22056
8.24507,23223
8.25078,19933
8.2565,22059
8.26223,20715
8.26795,21675
8.27367,21976
8.2794,21645
8.28512,22455
8.29083,23125
8.29657,22459
8.30228,21296
8.308,22393
8.31373,20186
8.31945,21659
8.32517,22821
8.3309,21927
8.33662,22974
8.34233,22307
8.34805,23845
8.35378,20515
8.3595,20860
8.36522,20138
8.37095,21053
8.37667,22296
8.38238,21745
8.38812,20394
8.39383,20585
8.39955,20942
8.40528,21447
8.411,22021
8.41672,20156
8.42245,21353
8.42817,20755
8.43388,20226
8.43962,22327
8.44533,20925
8.45105,19427
8.45678,20957
8.4625,21462
8.46822,22141
8.47393,22408
8.47967,21301
8.48538,20755
8.4911,21209
8.49683,21039
8.50255,21051
8.50827,21882
8.514,21171
8.51972,21553
8.52543,21947
8.53117,20373
8.53688,21439
8.5426,22155
8.54833,22581
8.55405,20980
8.55977,20325
8.5655,20514
8.57122,18657
8.57693,19656
8.58267,21271
8.58838,19901
8.5941,19449
8.59982,20896
8.60555,19713
8.61127,20745
8.61698,20539
8.62272,20599
8.62843,21626
8.63415,19809
8.63988,21375
8.6456,21557
8.65132,20373
8.65705,20369
8.66277,21334
8.66848,20962
8.67422,20605
8.67993,19263
8.68565,21534
8.69138,19946
8.6971,22057
8.70282,20722
8.70855,22388
8.71427,20429
8.71998,19787
8.7257,19156
8.73143,19755
8.73715,20730
8.74287,22542
8.7486,19259
8.75432,21449
8.76003,19451
8.76577,20346
8.77148,21673
8.7772,20408
8.78293,21506
8.78865,21604
8.79437,20458
8.8001,22895
8.80582,20184
8.81153,21456
8.81727,20762
8.82298,21878
8.8287,21851
8.83443,20372
8.84015,20719
8.84587,20517
8.85158,20925
8.85732,18328
8.86303,20409
8.86875,20838
8.87448,20486
8.8802,19588
8.88592,21067
8.89165,20949
8.89737,21003
8.90308,21483
8.90882,18912
8.91453,20758
8.92025,20335
8.92598,21993
8.9317,20315
8.93742,20750
8.94315,21881
8.94887,21372
8.95458,21805
8.96032,19681
8.96603,21739
8.97175,22663
8.97747,27367
8.9832,27899
8.98892,29703
8.99463,25392
9.00037,23088
9.00608,21019
9.0118,21995
9.01753,20927
9.02325,20744
9.02897,22400
9.0347,21964
9.04042,21301
9.04613,20137
9.05187,21301
9.05758,19013
9.0633,20447
9.06903,21744
9.07475,21056
9.08047,20480
9.0862,20381
9.09192,20937
9.09763,21232
9.10335,22353
9.10908,20092
9.1148,20892
9.12052,21555
9.12625,19438
9.13197,22319
9.13768,21730
9.14342,21700
9.14913,21839
9.15485,20320
9.16058,22846
9.1663,21660
9.17202,21747
9.17775,22833
9.18347,22062
9.18918,22595
9.19492,20748
9.20063,22824
9.20635,21095
9.21208,22014
9.2178,21391
9.22352,20828
9.22923,20841
9.23497,22549
9.24068,20216
9.2464,19960
9.25213,21599
9.25785,21498
9.26357,21656
9.2693,21668
9.27502,21331
9.28073,19852
9.28647,21433
9.29218,20477
9.2979,20124
9.30363,20248
9.30935,20785
9.31507,20850
9.3208,21572
9.32652,20843
9.33223,20901
9.33797,21415
9.34368,20999
9.3494,20887
9.35512,21723
9.36085,22792
9.36657,22727
9.37228,21467
9.37802,22297
9.38373,21005
9.38945,21919
9.39518,20199
9.4009,20506
9.40662,20298
9.41235,20995
9.41807,19655
9.42378,21989
9.42952,22636
9.43523,21621
9.44095,21485
9.44668,22003
9.4524,21448
9.45812,21426
9.46385,19771
9.46957,21117
9.47528,21210
9.481,21732
9.48673,21891
9.49245,21273
9.49817,21712
9.5039,20239
9.50962,22546
9.51533,22364
9.52107,24787
9.52678,22851
9.5325,26218
9.53823,22864
9.54395,24104
9.54967,22943
9.5554,24513
9.56112,23496
9.56683,23194
9.57257,22314
9.57828,23856
9.584,23405
9.58973,24188
9.59545,22007
9.60117,23664
9.60688,22167
9.61262,22862
9.61833,23341
9.62405,23949
9.62978,24697
9.6355,24633
9.64122,23706
9.64695,24181
9.65267,25371
9.65838,22989
9.66412,23414
9.66983,26178
9.67555,27089
9.68128,33917
9.687,45859
9.69272,59557
9.69845,68849
9.70417,64153
9.70988,58875
9.71562,55479
9.72133,57256
9.72705,56441
9.73277,60622
9.7385,56943
9.74422,56076
9.74993,53881
9.75567,49247
9.76138,46883
9.7671,43036
9.77283,43598
9.77855,40231
9.78427,38262
9.79,36736
9.79572,36491
9.80143,35950
9.80717,36019
9.81288,33933
9.8186,32454
9.82433,30714
9.83005,33964
9.83577,29577
9.8415,31297
9.84722,30696
9.85293,29136
9.85865,29807
9.86438,30555
9.8701,29835
9.87582,30355
9.88155,29985
9.88727,29857
9.89298,29088
9.89872,28418
9.90443,27253
9.91015,27796
9.91588,27260
9.9216,26123
9.92732,26493
9.93305,27901
9.93877,28118
9.94448,27141
9.95022,27099
9.95593,26754
9.96165,27734
9.96738,27537
9.9731,26968
9.97882,29570
9.98453,28780
9.99027,26442
9.99598,26271
10.0017,27010
10.0074,25535
10.0132,26123
10.0189,26432
10.0246,26764
10.0303,25205
10.036,24947
10.0418,26631
10.0475,27472
10.0532,27110
10.0589,24203
10.0647,25218
10.0704,25723
10.0761,26793
10.0818,26449
10.0875,26727
10.0933,25387
10.099,27569
10.1047,24019
10.1104,24965
10.1162,25842
10.1219,24979
10.1276,26764
10.1333,24555
10.139,25864
10.1448,25068
10.1505,24805
10.1562,24367
10.1619,24214
10.1677,25647
10.1734,24348
10.1791,24450
10.1848,27231
10.1905,27212
10.1963,25793
10.202,24624
10.2077,25996
10.2134,25120
10.2192,25928
10.2249,27171
10.2306,24441
10.2363,25505
10.242,28215
10.2478,28711
10.2535,30463
10.2592,29888
10.2649,27038
10.2706,26830
10.2764,26498
10.2821,25572
10.2878,23052
10.2935,25600
10.2993,24835
10.305,25609
10.3107,24062
10.3164,22979
10.3221,25267
10.3279,22386
10.3336,24758
10.3393,24570
10.345,25717
10.3508,25489
10.3565,24872
10.3622,23525
10.3679,24548
10.3736,25043
10.3794,22684
10.3851,24625
10.3908,24403
10.3965,23496
10.4023,24559
10.408,22579
10.4137,24286
10.4194,21597
10.4251,23155
10.4309,24561
10.4366,22181
10.4423,23728
10.448,23481
10.4538,24116
10.4595,24088
10.4652,24149
10.4709,22150
10.4766,21959
10.4824,23311
10.4881,23794
10.4938,23675
10.4995,22337
10.5052,23952
10.511,22993
10.5167,22909
10.5224,23437
10.5281,23593
10.5339,21993
10.5396,25821
10.5453,24383
10.551,23803
10.5567,24016
10.5625,23965
10.5682,24040
10.5739,24215
10.5796,23814
10.5854,22434
10.5911,23678
10.5968,23942
10.6025,27708
10.6082,28319
10.614,25694
10.6197,26916
10.6254,25705
10.6311,25189
10.6369,24098
10.6426,24314
10.6483,24175
10.654,23877
10.6597,25303
10.6655,23259
10.6712,24281
10.6769,23155
10.6826,24613
10.6884,23147
10.6941,24683
10.6998,23758
10.7055,23970
10.7112,24365
10.717,24458
10.7227,24092
10.7284,22969
10.7341,23345
10.7399,23143
10.7456,24676
10.7513,22324
10.757,23400
10.7627,23538
10.7685,24365
10.7742,23245
10.7799,23927
10.7856,25090
10.7913,23509
10.7971,25134
10.8028,24858
10.8085,24303
10.8142,24300
10.82,25512
10.8257,24186
10.8314,25316
10.8371,23482
10.8428,24383
10.8486,24653
10.8543,23056
10.86,24504
10.8657,24882
10.8715,24874
10.8772,24795
10.8829,23984
10.8886,24541
10.8943,25319
10.9001,24906
10.9058,24761
10.9115,26048
10.9172,25729
10.923,25130
10.9287,26207
10.9344,25123
10.9401,25420
10.9458,25215
10.9516,25306
10.9573,25213
10.963,26307
10.9687,25731
10.9745,27720
10.9802,28462
10.9859,27737
10.9916,28611
10.9973,30584
11.0031,29931
11.0088,30505
11.0145,30827
11.0202,31861
11.0259,33857
11.0317,35836
11.0374,38034
11.0431,47922
11.0488,54920
11.0546,61265
11.0603,66010
11.066,71527
11.0717,76262
11.0774,82153
11.0832,87206
11.0889,84933
11.0946,87617
11.1003,87327
11.1061,80094
11.1118,83020
11.1175,76027
11.1232,70720
11.1289,70857
11.1347,66965
11.1404,65259
11.1461,63408
11.1518,59888
11.1576,57021
11.1633,55899
11.169,53077
11.1747,50876
11.1804,50603
11.1862,50741
11.1919,46133
11.1976,46871
11.2033,45286
11.2091,43931
11.2148,46766
11.2205,45089
11.2262,44768
11.2319,48474
11.2377,47588
11.2434,49996
11.2491,50244
11.2548,49431
11.2605,49994
11.2663,50738
11.272,49626
11.2777,49197
11.2834,48240
11.2892,45570
11.2949,44619
11.3006,43942
11.3063,41084
11.312,41978
11.3178,41199
11.3235,39969
11.3292,37929
11.3349,38662
11.3407,38003
11.3464,38395
11.3521,36347
11.3578,35241
11.3635,35817
11.3693,35041
11.375,35224
11.3807,33571
11.3864,33486
11.3922,34106
11.3979,32351
11.4036,33185
11.4093,34865
11.415,35228
11.4208,36538
11.4265,38777
11.4322,36186
11.4379,34417
11.4437,32803
11.4494,34245
11.4551,32473
11.4608,33311
11.4665,32603
11.4723,32365
11.478,31882
11.4837,31376
11.4894,30702
11.4952,31281
11.5009,30300
11.5066,30715
11.5123,31124
11.518,28623
11.5238,28636
11.5295,29579
11.5352,28951
11.5409,29326
11.5466,29636
11.5524,31358
11.5581,30747
11.5638,28880
11.5695,28645
11.5753,30172
11.581,28837
11.5867,30272
11.5924,30250
11.5981,29390
11.6039,27996
11.6096,30306
11.6153,29875
11.621,30124
11.6268,29048
11.6325,29709
11.6382,29874
11.6439,29149
11.6496,30240
11.6554,29240
11.6611,29121
11.6668,29443
11.6725,28384
11.6783,29481
11.684,28150
11.6897,29537
11.6954,29107
11.7011,29225
11.7069,29855
11.7126,28476
11.7183,30464
11.724,29397
11.7298,30230
11.7355,28794
11.7412,30033
11.7469,29030
11.7526,27509
11.7584,28970
11.7641,28354
11.7698,27288
11.7755,28702
11.7812,27228
11.787,28124
11.7927,29455
11.7984,28771
11.8041,29978
11.8099,30190
11.8156,30309
11.8213,29403
11.827,28190
11.8327,29273
11.8385,28683
11.8442,28771
11.8499,29705
11.8556,27388
11.8614,29202
11.8671,29806
11.8728,32675
11.8785,31570
11.8842,32914
11.89,30986
11.8957,27404
11.9014,27825
11.9071,29159
11.9129,28092
11.9186,28530
11.9243,29469
11.93,29999
11.9357,26703
11.9415,28423
11.9472,29491
11.9529,27955
11.9586,28779
11.9644,28397
11.9701,25545
11.9758,27823
11.9815,26707
11.9872,28101
11.993,27558
11.9987,27469
12.0044,26357
12.0101,28199
12.0158,29349
12.0216,29263
12.0273,28335
12.033,26752
12.0387,28767
12.0445,29038
12.0502,27300
12.0559,26454
12.0616,29987
12.0673,29470
12.0731,28350
12.0788,29819
12.0845,29310
12.0902,30310
12.096,27156
12.1017,28752
12.1074,26845
12.1131,27202
12.1188,28566
12.1246,28148
12.1303,30150
12.136,29931
12.1417,28723
12.1475,27992
12.1532,28652
12.1589,28315
12.1646,30211
12.1703,27648
12.1761,27768
12.1818,31531
12.1875,29254
12.1932,29398
12.199,29665
12.2047,29514
12.2104,29023
12.2161,26887
12.2218,28468
12.2276,29224
12.2333,29069
12.239,30056
12.2447,27994
12.2505,28800
12.2562,29171
12.2619,30018
12.2676,28616
12.2733,29404
12.2791,28374
12.2848,30790
12.2905,28666
12.2962,27829
12.3019,28961
12.3077,28416
12.3134,32029
12.3191,28637
12.3248,30832
12.3306,27111
12.3363,28986
12.342,28816
12.3477,29075
12.3534,29917
12.3592,30799
12.3649,29264
12.3706,30483
12.3763,28639
12.3821,31050
12.3878,30085
12.3935,30626
12.3992,29551
12.4049,30020
12.4107,30640
12.4164,30254
12.4221,29003
12.4278,30998
12.4336,29913
12.4393,28592
12.445,29443
12.4507,30313
12.4564,29334
12.4622,29725
12.4679,29439
12.4736,30079
12.4793,32087
12.4851,32397
12.4908,35430
12.4965,36089
12.5022,34637
12.5079,31347
12.5137,30615
12.5194,29652
12.5251,29998
12.5308,31321
12.5365,30668
12.5423,29027
12.548,30779
12.5537,32159
12.5594,30157
12.5652,29753
12.5709,30154
12.5766,29614
12.5823,31371
12.588,31724
12.5938,30545
12.5995,30964
12.6052,28431
12.6109,29795
12.6167,29607
12.6224,30510
12.6281,32369
12.6338,32459
12.6395,31842
12.6453,31045
12.651,31557
12.6567,30568
12.6624,32711
12.6682,30642
12.6739,32493
12.6796,32735
12.6853,30133
12.691,31186
12.6968,30364
12.7025,30827
12.7082,31977
12.7139,31579
12.7197,33183
12.7254,31825
12.7311,30928
12.7368,31829
12.7425,31506
12.7483,33509
12.754,31588
12.7597,30814
12.7654,31826
12.7711,30959
12.7769,31478
12.7826,31783
12.7883,33422
12.794,32547
12.7998,33194
12.8055,34007
12.8112,36185
12.8169,33300
12.8226,34388
12.8284,36488
12.8341,35908
12.8398,34787
12.8455,32505
12.8513,34318
12.857,31962
12.8627,33934
12.8684,36277
12.8741,32273
12.8799,34282
12.8856,33396
12.8913,32334
12.897,33060
12.9028,33510
12.9085,33479
12.9142,33998
12.9199,32696
12.9256,34011
12.9314,33569
12.9371,32919
12.9428,35281
12.9485,34108
12.9543,34203
12.96,34465
12.9657,35951
12.9714,34264
12.9771,34123
12.9829,35745
12.9886,34608
12.9943,33997
13,35463
13.0058,34647
13.0115,36940
13.0172,35087
13.0229,34810
13.0286,37587
13.0344,35338
13.0401,35832
13.0458,36304
13.0515,35732
13.0572,34283
13.063,35725
13.0687,34357
13.0744,36497
13.0801,37939
13.0859,37289
13.0916,36897
13.0973,37960
13.103,36535
13.1087,35928
13.1145,36502
13.1202,37339
13.1259,39064
13.1316,38550
13.1374,37202
13.1431,36157
13.1488,37688
13.1545,40487
13.1602,43278
13.166,44183
13.1717,42422
13.1774,40696
13.1831,43744
13.1889,41138
13.1946,39563
13.2003,39510
13.206,40370
13.2117,42039
13.2175,38407
13.2232,41290
13.2289,40467
13.2346,42812
13.2404,39566
13.2461,40522
13.2518,41730
13.2575,41825
13.2632,42506
13.269,41601
13.2747,40708
13.2804,41241
13.2861,41424
13.2918,44228
13.2976,42376
13.3033,42088
13.309,40319
13.3147,44833
13.3205,42427
13.3262,42168
13.3319,43118
13.3376,45327
13.3433,45188
13.3491,43270
13.3548,45780
13.3605,45069
13.3662,45252
13.372,46601
13.3777,45699
13.3834,46278
13.3891,47294
13.3948,45876
13.4006,49179
13.4063,45413
13.412,46734
13.4177,47418
13.4235,44333
13.4292,47706
13.4349,46968
13.4406,45803
13.4463,46652
13.4521,48891
13.4578,49029
13.4635,47576
13.4692,46838
13.475,52003
13.4807,53438
13.4864,52671
13.4921,49840
13.4978,49057
13.5036,49609
13.5093,48371
13.515,48122
13.5207,49323
13.5264,50820
13.5322,49860
13.5379,49390
13.5436,48451
13.5493,47833
13.5551,47518
13.5608,47786
13.5665,47850
13.5722,48595
13.5779,48522
13.5837,50309
13.5894,50695
13.5951,48268
13.6008,50740
13.6066,49168
13.6123,49601
13.618,48423
13.6237,50125
13.6294,50608
13.6352,49289
13.6409,51870
13.6466,52130
13.6523,51207
13.6581,53945
13.6638,50038
13.6695,49920
13.6752,49298
13.6809,52553
13.6867,51161
13.6924,52518
13.6981,50878
13.7038,53889
13.7096,51660
13.7153,52679
13.721,53843
13.7267,53997
13.7324,54148
13.7382,53776
13.7439,55070
13.7496,53852
13.7553,60251
13.7611,59755
13.7668,57823
13.7725,60491
13.7782,59999
13.7839,59551
13.7897,56338
13.7954,56405
13.8011,58042
13.8068,53861
13.8125,57010
13.8183,53661
13.824,55613
13.8297,58117
13.8354,56805
13.8412,58991
13.8469,58603
13.8526,65833
13.8583,68585
13.864,69467
13.8698,72492
13.8755,66977
13.8812,63978
13.8869,66302
13.8927,62638
13.8984,64230
13.9041,62742
13.9098,60773
13.9155,61915
13.9213,63753
13.927,62254
13.9327,60748
13.9384,63533
13.9442,59242
13.9499,65061
13.9556,64231
13.9613,65934
13.967,68300
13.9728,67173
13.9785,65469
13.9842,65837
13.9899,66646
13.9957,63390
14.0014,67021
14.0071,63961
14.0128,64719
14.0185,64715
14.0243,64156
14.03,66587
14.0357,65518
14.0414,66451
14.0471,67512
14.0529,68275
14.0586,67350
14.0643,69034
14.07,67129
14.0758,71409
14.0815,73837
14.0872,73615
14.0929,74608
14.0986,72270
14.1044,69669
14.1101,65739
14.1158,68970
14.1215,69608
14.1273,71835
14.133,70821
14.1387,70593
14.1444,69708
14.1501,68572
14.1559,72541
14.1616,70651
14.1673,70261
14.173,69100
14.1788,70451
14.1845,70363
14.1902,73575
14.1959,73134
14.2016,72273
14.2074,70449
14.2131,71962
14.2188,73949
14.2245,73277
14.2303,72785
14.236,72057
14.2417,75630
14.2474,73343
14.2531,73427
14.2589,71684
14.2646,74935
14.2703,74282
14.276,76468
14.2818,74196
14.2875,75885
14.2932,78096
14.2989,75231
14.3046,77797
14.3104,76401
14.3161,76629
14.3218,78408
14.3275,76878
14.3332,77439
14.339,80669
14.3447,80306
14.3504,78365
14.3561,80698
14.3619,79325
14.3676,77779
14.3733,79951
14.379,80713
14.3847,82262
14.3905,84195
14.3962,80568
14.4019,88394
14.4076,87818
14.4134,91127
14.4191,87693
14.4248,87194
14.4305,86921
14.4362,84273
14.442,83263
14.4477,85334
14.4534,84702
14.4591,82202
14.4649,85232
14.4706,85910
14.4763,86839
14.482,85291
14.4877,87373
14.4935,86218
14.4992,87409
14.5049,90556
14.5106,88466
14.5164,90721
14.5221,89240
14.5278,94490
14.5335,91229
14.5392,93387
14.545,90466
14.5507,93200
14.5564,91091
14.5621,93226
14.5678,96003
14.5736,91659
14.5793,93624
14.585,96025
14.5907,98744
14.5965,95439
14.6022,95830
14.6079,93696
14.6136,98694
14.6193,94811
14.6251,97608
14.6308,96795
14.6365,94615
14.6422,96568
14.648,97508
14.6537,96970
14.6594,96787
14.6651,98761
14.6708,96619
14.6766,98941
14.6823,99012
14.688,98398
14.6937,101138
14.6995,98308
14.7052,100328
14.7109,101832
14.7166,100005
14.7223,101203
14.7281,103286
14.7338,97784
14.7395,101307
14.7452,103767
14.751,102589
14.7567,101140
14.7624,104596
14.7681,104917
14.7738,103738
14.7796,102377
14.7853,105081
14.791,103367
14.7967,104162
14.8024,102133
14.8082,108860
14.8139,105327
14.8196,105557
14.8253,108224
14.8311,108945
14.8368,108963
14.8425,109556
14.8482,104832
14.8539,107047
14.8597,108895
14.8654,110796
14.8711,111782
14.8768,111208
14.8826,109811
14.8883,110708
14.894,112022
14.8997,116086
14.9054,113524
14.9112,111432
14.9169,114347
14.9226,113132
14.9283,116947
14.9341,117672
14.9398,116162
14.9455,117737
14.9512,118021
14.9569,121078
14.9627,118624
14.9684,118430
14.9741,118272
14.9798,125480
14.9856,122944
14.9913,121458
14.997,121620
15.0027,123232
15.0084,121519
15.0142,120839
15.0199,123531
15.0256,124073
15.0313,121157
15.0371,125149
15.0428,122347
15.0485,122976
15.0542,128042
15.0599,125860
15.0657,127362
15.0714,126289
15.0771,128742
15.0828,128225
15.0885,130767
15.0943,127742
15.1,131764
15.1057,131812
15.1114,128377
15.1172,130227
15.1229,127575
15.1286,132001
15.1343,132152
15.14,133197
15.1458,136803
15.1515,132643
15.1572,131295
15.1629,136713
15.1687,135487
15.1744,133098
15.1801,135220
15.1858,134998
15.1915,139683
15.1973,141786
15.203,140071
15.2087,144649
15.2144,135576
15.2202,136751
15.2259,141897
15.2316,145360
15.2373,142437
15.243,142271
15.2488,146796
15.2545,151578
15.2602,152028
15.2659,154656
15.2717,160729
15.2774,157409
15.2831,158140
15.2888,160130
15.2945,157156
15.3003,152212
15.306,153614
15.3117,154549
15.3174,153909
15.3231,151776
15.3289,149617
15.3346,157459
15.3403,163252
15.346,157950
15.3518,157881
15.3575,160523
15.3632,159238
15.3689,160032
15.3746,164851
15.3804,163064
15.3861,163243
15.3918,162931
15.3975,167503
15.4033,167333
15.409,162688
15.4147,169626
15.4204,165168
15.4261,168311
15.4319,171140
15.4376,169942
15.4433,169927
15.449,171810
15.4548,169832
15.4605,167530
15.4662,172374
15.4719,174448
15.4776,175159
15.4834,182306
15.4891,174347
15.4948,173377
15.5005,179071
15.5063,177049
15.512,176823
15.5177,175991
15.5234,177733
15.5291,180190
15.5349,181762
15.5406,179645
15.5463,182400
15.552,181079
15.5577,178828
15.5635,180829
15.5692,185287
15.5749,182068
15.5806,185158
15.5864,185043
15.5921,188468
15.5978,180450
15.6035,184218
15.6092,188392
15.615,187810
15.6207,187395
15.6264,187443
15.6321,184749
15.6379,187687
15.6436,188653
15.6493,190649
15.655,193018
15.6607,191623
15.6665,194386
15.6722,194499
15.6779,195398
15.6836,194796
15.6894,197580
15.6951,203025
15.7008,200315
15.7065,199490
15.7122,202866
15.718,200998
15.7237,202348
15.7294,201245
15.7351,203410
15.7409,205649
15.7466,208016
15.7523,207794
15.758,209690
15.7637,207558
15.7695,211084
15.7752,207678
15.7809,210629
15.7866,213239
15.7924,215942
15.7981,211873
15.8038,213080
15.8095,215845
15.8152,215211
15.821,218157
15.8267,218281
15.8324,219752
15.8381,221923
15.8438,219763
15.8496,223395
15.8553,219321
15.861,225390
15.8667,224198
15.8725,222506
15.8782,220172
15.8839,223585
15.8896,226769
15.8953,227057
15.9011,229202
15.9068,228154
15.9125,232805
15.9182,230730
15.924,229934
15.9297,231187
15.9354,232044
15.9411,234866
15.9468,235985
15.9526,236776
15.9583,240012
15.964,240211
15.9697,237045
15.9755,232233
15.9812,235814
15.9869,237545
15.9926,238598
15.9983,236615
16.004,237968
16.0098,240417
16.0155,239828
16.0212,246301
16.0269,245964
16.0327,247985
16.0384,240989
16.0441,247281
16.0498,245846
16.0556,247075
16.0613,245916
16.067,251647
16.0727,243064
16.0784,247636
16.0842,250421
16.0899,254554
16.0956,257481
16.1013,259625
16.1071,262921
16.1128,261121
16.1185,260481
16.1242,265849
16.1299,264961
16.1357,267080
16.1414,263938
16.1471,260345
16.1528,262929
16.1586,263256
16.1643,267992
16.17,262053
16.1757,269224
16.1814,271465
16.1871,274934
16.1929,269248
16.1986,267053
16.2043,273488
16.21,273132
16.2158,270751
16.2215,278047
16.2272,276936
16.2329,281807
16.2387,276201
16.2444,279421
16.2501,279120
16.2558,284886
16.2616,284546
16.2673,285464
16.273,287930
16.2787,288636
16.2844,291118
16.2902,289260
16.2959,292222
16.3016,286806
16.3073,291730
16.313,296182
16.3188,297944
16.3245,293328
16.3302,290911
16.3359,301765
16.3417,301321
16.3474,304365
16.3531,306087
16.3588,304721
16.3645,305859
16.3703,309388
16.376,313830
16.3817,310910
16.3874,312741
16.3931,307055
16.3989,310843
16.4046,313985
16.4103,311981
16.416,314707
16.4218,313925
16.4275,315125
16.4332,319698
16.4389,320927
16.4446,323251
16.4504,320542
16.4561,323040
16.4618,330798
16.4675,332150
16.4733,328496
16.479,331554
16.4847,336334
16.4904,333549
16.4962,334864
16.5019,334201
16.5076,335497
16.5133,332033
16.519,344378
16.5248,335391
16.5305,341002
16.5362,342994
16.5419,342837
16.5477,342402
16.5534,350434
16.5591,345779
16.5648,350528
16.5705,349435
16.5763,350845
16.582,352231
16.5877,353084
16.5934,352033
16.5991,357295
16.6049,355695
16.6106,357130
16.6163,357842
16.622,365630
16.6277,369291
16.6335,357185
16.6392,358887
16.6449,357817
16.6506,366219
16.6564,376442
16.6621,375423
16.6678,371069
16.6735,370814
16.6793,374507
16.685,372588
16.6907,379133
16.6964,390663
16.7021,385546
16.7079,389750
16.7136,386959
16.7193,399698
16.725,400097
16.7308,402660
16.7365,395615
16.7422,398818
16.7479,400814
16.7536,400423
16.7594,401550
16.7651,408322
16.7708,408028
16.7765,407091
16.7823,396499
16.788,405831
16.7937,418033
16.7994,420989
16.8051,416638
16.8108,414399
16.8166,416717
16.8223,427051
16.828,432030
16.8337,430336
16.8395,432084
16.8452,433493
16.8509,435861
16.8566,440199
16.8623,444890
16.8681,444318
16.8738,443419
16.8795,438555
16.8852,442384
16.891,445792
16.8967,452350
16.9024,447998
16.9081,458873
16.9139,455106
16.9196,456201
16.9253,461622
16.931,463210
16.9367,461297
16.9425,462684
16.9482,465009
16.9539,472994
16.9596,475455
16.9654,477934
16.9711,478835
16.9768,479136
16.9825,478771
16.9882,475456
16.994,481594
16.9997,480122
17.0054,482757
17.0111,480088
17.0169,483015
17.0226,484592
17.0283,487710
17.034,486835
17.0397,497942
17.0454,494351
17.0512,500302
17.0569,501631
17.0626,507235
17.0683,504303
17.0741,505656
17.0798,494620
17.0855,495965
17.0912,504437
17.097,512089
17.1027,506141
17.1084,504965
17.1141,511666
17.1198,513613
17.1256,512986
17.1313,501353
17.137,510373
17.1427,513904
17.1485,514597
17.1542,513161
17.1599,518841
17.1656,515397
17.1713,524594
17.1771,526312
17.1828,532293
17.1885,533886
17.1942,525242
17.2,539246
17.2057,534333
17.2114,537128
17.2171,535783
17.2228,530835
17.2285,537702
17.2343,535298
17.24,537891
17.2457,541474
17.2514,546221
17.2572,537724
17.2629,552125
17.2686,544174
17.2743,550561
17.28,549535
17.2858,554432
17.2915,563368
17.2972,560078
17.3029,558075
17.3087,558916
17.3144,563572
17.3201,554484
17.3258,568184
17.3316,562277
17.3373,568371
17.343,567323
17.3487,581053
17.3544,576055
17.3602,579276
17.3659,579181
17.3716,585768
17.3773,579603
17.3831,587061
17.3888,582925
17.3945,593225
17.4002,598516
17.4059,605329
17.4117,601683
17.4174,605441
17.4231,600341
17.4288,598657
17.4346,597458
17.4403,606611
17.446,611868
17.4517,606814
17.4574,614462
17.4631,616798
17.4689,619950
17.4746,619071
17.4803,617875
17.4861,626677
17.4918,626148
17.4975,626772
17.5032,624327
17.5089,628367
17.5147,626014
17.5204,637479
17.5261,628326
17.5318,642122
17.5376,635493
17.5433,640095
17.549,640702
17.5547,643727
17.5604,645046
17.5662,654633
17.5719,646518
17.5776,659207
17.5833,651305
17.589,660764
17.5948,655489
17.6005,658745
17.6062,666473
17.6119,662957
17.6177,662868
17.6234,673032
17.6291,671878
17.6348,671030
17.6405,664331
17.6463,669803
17.652,672119
17.6577,668697
17.6634,676514
17.6692,673731
17.6749,674190
17.6806,670735
17.6863,666520
17.692,662901
17.6977,661951
17.7035,661670
17.7092,674344
17.7149,676972
17.7206,666733
17.7264,667089
17.7321,660548
17.7378,669423
17.7435,678819
17.7493,677470
17.755,677328
17.7607,681812
17.7664,684797
17.7722,682163
17.7779,673471
17.7836,680968
17.7893,676945
17.795,683189
17.8008,689423
17.8065,682883
17.8122,682500
17.8179,684114
17.8236,695160
17.8294,693227
17.8351,700259
17.8408,700716
17.8465,702109
17.8523,686930
17.858,696084
17.8637,696365
17.8694,687511
17.8751,692206
17.8809,700031
17.8866,696205
17.8923,696539
17.898,702152
17.9038,704223
17.9095,710037
17.9152,698037
17.9209,700452
17.9266,707629
17.9324,712793
17.9381,715132
17.9438,711326
17.9495,719514
17.9552,712449
17.961,706945
17.9667,708611
17.9724,712021
17.9781,707719
17.9839,721655
17.9896,724814
17.9953,725776
18.001,725723
18.0068,729193
18.0125,735788
18.0182,722900
18.0239,720307
18.0296,721997
18.0354,714378
18.0411,716468
18.0468,723457
18.0525,735574
18.0583,723872
18.064,717533
18.0697,722691
18.0754,724754
18.0811,728450
18.0869,737926
18.0926,741577
18.0983,742393
18.104,737201
18.1097,742582
18.1155,735732
18.1212,743484
18.1269,761833
18.1326,751061
18.1384,746284
18.1441,751885
18.1498,758586
18.1555,765051
18.1612,764687
18.167,757985
18.1727,766671
18.1784,769541
18.1841,761896
18.1899,759338
18.1956,771738
18.2013,769627
18.207,766297
18.2127,765400
18.2185,771766
18.2242,782218
18.2299,773036
18.2356,782920
18.2414,780425
18.2471,778476
18.2528,774837
18.2585,765756
18.2642,770786
18.27,775140
18.2757,768226
18.2814,775295
18.2871,780768
18.2929,783269
18.2986,781167
18.3043,776288
18.31,782082
18.3157,787551
18.3215,786106
18.3272,791811
18.3329,796129
18.3386,786024
18.3443,790651
18.3501,784449
18.3558,790490
18.3615,787638
18.3672,782409
18.3729,777301
18.3787,785695
18.3844,776441
18.3901,789413
18.3958,783419
18.4016,771380
18.4073,774884
18.413,771650
18.4187,765801
18.4245,771413
18.4302,765098
18.4359,761495
18.4416,764279
18.4473,766530
18.4531,770865
18.4588,774778
18.4645,766627
18.4702,773442
18.476,777990
18.4817,777481
18.4874,785943
18.4931,781714
18.4988,769858
18.5046,771150
18.5103,768393
18.516,763012
18.5217,757890
18.5275,769787
18.5332,759877
18.5389,768798
18.5446,759368
18.5503,775754
18.5561,762366
18.5618,764964
18.5675,774104
18.5732,774127
18.5789,773908
18.5847,778241
18.5904,781501
18.5961,762397
18.6018,779107
18.6076,769919
18.6133,765584
18.619,760679
18.6247,770191
18.6304,775017
18.6362,776351
18.6419,770702
18.6476,768803
18.6533,778172
18.6591,776137
18.6648,765641
18.6705,769756
18.6762,779011
18.6819,764841
18.6877,765104
18.6934,767968
18.6991,769880
18.7048,767705
18.7106,771043
18.7163,769008
18.722,781492
18.7277,774411
18.7334,778073
18.7392,780078
18.7449,771519
18.7506,780584
18.7563,786458
18.7621,788704
18.7678,786209
18.7735,784427
18.7792,791181
18.7849,788833
18.7906,785453
18.7964,789413
18.8021,792586
18.8078,787549
18.8135,786081
18.8193,794932
18.825,785309
18.8307,796028
18.8364,796715
18.8422,789633
18.8479,775353
18.8536,792747
18.8593,797428
18.865,804441
18.8708,806047
18.8765,812619
18.8822,818241
18.8879,811734
18.8937,808547
18.8994,814718
18.9051,810783
18.9108,807729
18.9165,812159
18.9223,807803
18.928,808208
18.9337,815781
18.9394,824658
18.9452,809106
18.9509,818497
18.9566,818685
18.9623,812331
18.968,813824
18.9738,823194
18.9795,820903
18.9852,831158
18.9909,839642
18.9967,839848
19.0024,841530
19.0081,833309
19.0138,824202
19.0195,833330
19.0253,840739
19.031,839248
19.0367,841805
19.0424,842466
19.0482,837658
19.0539,837787
19.0596,827347
19.0653,837956
19.071,840425
19.0768,846557
19.0825,834316
19.0882,842202
19.0939,845160
19.0996,852493
19.1054,833629
19.1111,849071
19.1168,846074
19.1225,852146
19.1283,859733
19.134,845141
19.1397,849365
19.1454,843573
19.1511,850128
19.1569,850727
19.1626,852939
19.1683,859049
19.174,852645
19.1798,849661
19.1855,844296
19.1912,849143
19.1969,855790
19.2026,864153
19.2084,864498
19.2141,854836
19.2198,853395
19.2255,853393
19.2312,855312
19.237,851918
19.2427,853312
19.2484,850237
19.2541,858290
19.2599,857534
19.2656,861938
19.2713,859504
19.277,855378
19.2828,844710
19.2885,846894
19.2942,851282
19.2999,849709
19.3056,862639
19.3114,857473
19.3171,863505
19.3228,859900
19.3285,851266
19.3343,852611
19.34,848278
19.3457,861306
19.3514,850341
19.3571,850804
19.3629,847759
19.3686,863171
19.3743,861710
19.38,848554
19.3857,853883
19.3915,850842
19.3972,848984
19.4029,848862
19.4086,846603
19.4144,847766
19.4201,848820
19.4258,857795
19.4315,858534
19.4372,849727
19.443,855343
19.4487,850223
19.4544,851286
19.4601,854018
19.4659,846279
19.4716,851666
19.4773,840224
19.483,865968
19.4887,859150
19.4945,858490
19.5002,853770
19.5059,853599
19.5116,855513
19.5174,849538
19.5231,847136
19.5288,846315
19.5345,842852
19.5402,844680
19.546,853815
19.5517,842532
19.5574,844664
19.5631,853942
19.5689,842697
19.5746,848264
19.5803,844685
19.586,838091
19.5917,829562
19.5975,851979
19.6032,853802
19.6089,844008
19.6146,852186
19.6203,849596
19.6261,847975
19.6318,847119
19.6375,840475
19.6432,845780
19.6489,840250
19.6547,832930
19.6604,837611
19.6661,833596
19.6718,851855
19.6776,850764
19.6833,860098
19.689,849041
19.6947,849836
19.7005,845079
19.7062,848285
19.7119,859418
19.7176,861606
19.7233,864297
19.7291,868895
19.7348,859941
19.7405,865713
19.7462,866025
19.752,862174
19.7577,866439
19.7634,866659
19.7691,865870
19.7748,867593
19.7806,864929
19.7863,874444
19.792,865162
19.7977,869504
19.8035,883960
19.8092,869272
19.8149,856474
19.8206,867713
19.8263,853927
19.8321,868294
19.8378,867030
19.8435,878680
19.8492,873494
19.8549,873454
19.8607,869504
19.8664,878533
19.8721,869065
19.8778,857427
19.8836,870045
19.8893,869550
19.895,863211
19.9007,880933
19.9064,876653
19.9122,872407
19.9179,873987
19.9236,872622
19.9293,879342
19.9351,864945
19.9408,873978
19.9465,863909
19.9522,867601
19.9579,872285
19.9637,874181
19.9694,872372
19.9751,890538
19.9808,884247
19.9866,879431
19.9923,877802
19.998,878336
20.0037,876964
20.0094,885078
20.0152,875660
20.0209,869908
20.0266,872529
20.0323,875469
20.0381,878589
20.0438,870788
20.0495,874326
20.0552,881008
20.0609,871145
20.0666,881802
20.0724,864032
20.0781,877741
20.0838,875587
20.0896,891240
20.0953,881577
20.101,871348
20.1067,869333
20.1124,882381
20.1182,873979
20.1239,877466
20.1296,875911
20.1353,877202
20.141,862243
20.1468,857997
20.1525,857821
20.1582,871541
20.1639,867242
20.1697,855822
20.1754,866555
20.1811,875155
20.1868,867951
20.1925,862638
20.1983,866407
20.204,860438
20.2097,870553
20.2154,864071
20.2212,859774
20.2269,861080
20.2326,867609
20.2383,863527
20.244,862680
20.2498,859913
20.2555,864821
20.2612,861037
20.2669,867500
20.2727,871123
20.2784,870800
20.2841,867321
20.2898,869726
20.2955,869765
20.3013,868923
20.307,857220
20.3127,869241
20.3184,864516
20.3241,879986
20.3299,867934
20.3356,865636
20.3413,868339
20.347,869852
20.3528,858898
20.3585,865177
20.3642,869575
20.3699,864446
20.3756,870641
20.3814,869044
20.3871,870083
20.3928,858532
20.3985,865142
20.4043,861788
20.41,867640
20.4157,860088
20.4214,867079
20.4271,872567
20.4329,858742
20.4386,868303
20.4443,854969
20.45,858721
20.4558,855841
20.4615,861631
20.4672,847731
20.4729,846023
20.4786,860112
20.4844,859733
20.4901,849677
