C:\MSDCHEM\1\DATA\BECKY\20180124 2 PHASE EXTR 2\1-23-18 MS 2A.d 24 Jan 18   7:55 pm
Start of data points
3.09255,11347
3.09827,13146
3.10398,12285
3.10972,10964
3.11543,11622
3.12115,11406
3.12688,12367
3.1326,12284
3.13832,11253
3.14405,11636
3.14977,11160
3.15548,11280
3.16122,11092
3.16693,11631
3.17265,10857
3.17838,11363
3.1841,10859
3.18982,10552
3.19555,10620
3.20127,11110
3.20698,11095
3.2127,11119
3.21843,10803
3.22415,9308
3.22987,10509
3.2356,10503
3.24132,10221
3.24703,10568
3.25277,10127
3.25848,9511
3.2642,9869
3.26993,10503
3.27565,10437
3.28137,9218
3.2871,10765
3.29282,8894
3.29853,8283
3.30427,9442
3.30998,8798
3.3157,8699
3.32143,8430
3.32715,8787
3.33287,8192
3.33858,7226
3.34432,8054
3.35003,8502
3.35575,7490
3.36148,7537
3.3672,7678
3.37292,7191
3.37865,5890
3.38437,8070
3.39008,6578
3.39582,7090
3.40153,7535
3.40725,6501
3.41298,7414
3.4187,6391
3.42442,7078
3.43015,6807
3.43587,5973
3.44158,6261
3.44732,6281
3.45303,6340
3.45875,6442
3.46447,5683
3.4702,5745
3.47592,6539
3.48163,6057
3.48737,6113
3.49308,5640
3.4988,5939
3.50453,5235
3.51025,5629
3.51597,5272
3.5217,6095
3.52742,5223
3.53313,4851
3.53887,5476
3.54458,4417
3.5503,4982
3.55603,6728
3.56175,5405
3.56747,5302
3.5732,4463
3.57892,5093
3.58463,4801
3.59035,5108
3.59608,5311
3.6018,4548
3.60752,5685
3.61325,4562
3.61897,4706
3.62468,4488
3.63042,5577
3.63613,5120
3.64185,4227
3.64758,4135
3.6533,5188
3.65902,4563
3.66475,3468
3.67047,3583
3.67618,4659
3.68192,4404
3.68763,4527
3.69335,4532
3.69908,4440
3.7048,4085
3.71052,4322
3.71623,4070
3.72197,3935
3.72768,4464
3.7334,4884
3.73913,4282
3.74485,3643
3.75057,4017
3.7563,4697
3.76202,3735
3.76773,4930
3.77347,3949
3.77918,4425
3.7849,3447
3.79063,3727
3.79635,3864
3.80207,3582
3.8078,3530
3.81352,3549
3.81923,4155
3.82497,4131
3.83068,2994
3.8364,3806
3.84212,4554
3.84785,3975
3.85357,4029
3.85928,4112
3.86502,2841
3.87073,4094
3.87645,3575
3.88218,3462
3.8879,3920
3.89362,3830
3.89935,2282
3.90507,3572
3.91078,3518
3.91652,4261
3.92223,3616
3.92795,3654
3.93368,3518
3.9394,3260
3.94512,3226
3.95085,3264
3.95657,3135
3.96228,3494
3.968,3969
3.97373,3081
3.97945,2794
3.98517,3292
3.9909,4096
3.99662,3057
4.00233,2813
4.00807,4152
4.01378,3285
4.0195,2991
4.02523,3567
4.03095,3031
4.03667,3661
4.0424,3675
4.04812,3800
4.05383,4431
4.05957,4245
4.06528,3473
4.071,4867
4.07673,4589
4.08245,3505
4.08817,3717
4.09388,3681
4.09962,4288
4.10533,3742
4.11105,3166
4.11678,3404
4.1225,3256
4.12822,4051
4.13395,3699
4.13967,3640
4.14538,3953
4.15112,2952
4.15683,3361
4.16255,3599
4.16828,3495
4.174,3046
4.17972,2946
4.18545,3361
4.19117,2580
4.19688,2480
4.20262,2698
4.20833,2480
4.21405,3034
4.21977,3401
4.2255,2223
4.23122,2844
4.23693,2205
4.24267,3019
4.24838,2410
4.2541,3185
4.25983,2306
4.26555,2655
4.27127,2212
4.277,2978
4.28272,2110
4.28843,2822
4.29417,2403
4.29988,2670
4.3056,3119
4.31133,2489
4.31705,3121
4.32277,2793
4.3285,2883
4.33422,2150
4.33993,2896
4.34565,2399
4.35138,2249
4.3571,2221
4.36282,3012
4.36855,3526
4.37427,2397
4.37998,2650
4.38572,2515
4.39143,1949
4.39715,3113
4.40288,2362
4.4086,2564
4.41432,2727
4.42005,3014
4.42577,3086
4.43148,2428
4.43722,2091
4.44293,2699
4.44865,3100
4.45438,2422
4.4601,2284
4.46582,2129
4.47153,2457
4.47727,1700
4.48298,2727
4.4887,2073
4.49443,2713
4.50015,2198
4.50587,2350
4.5116,2647
4.51732,2355
4.52303,2045
4.52877,1755
4.53448,2074
4.5402,2546
4.54593,2536
4.55165,2369
4.55737,2771
4.5631,2113
4.56882,1266
4.57453,2277
4.58027,2179
4.58598,2374
4.5917,2066
4.59742,1971
4.60315,1459
4.60887,2179
4.61458,1694
4.62032,1694
4.62603,2210
4.63175,2036
4.63748,2130
4.6432,1723
4.64892,1855
4.65465,1593
4.66037,2136
4.66608,2193
4.67182,2434
4.67753,1974
4.68325,2144
4.68898,1709
4.6947,2308
4.70042,1940
4.70615,2142
4.71187,2209
4.71758,2887
4.7233,2654
4.72903,2620
4.73475,2249
4.74047,1727
4.7462,2132
4.75192,1525
4.75763,1863
4.76337,2116
4.76908,1647
4.7748,1442
4.78053,1927
4.78625,1201
4.79197,1573
4.7977,1992
4.80342,2179
4.80913,2300
4.81487,2485
4.82058,1799
4.8263,1769
4.83203,2129
4.83775,1590
4.84347,1837
4.84918,1580
4.85492,2131
4.86063,2440
4.86635,2192
4.87208,1637
4.8778,2274
4.88352,2439
4.88925,2099
4.89497,2161
4.90068,1208
4.90642,1529
4.91213,1285
4.91785,1822
4.92358,2348
4.9293,2018
4.93502,1472
4.94075,1842
4.94647,1890
4.95218,2748
4.95792,2373
4.96363,2433
4.96935,1650
4.97507,2177
4.9808,2378
4.98652,2266
4.99223,1057
4.99797,2084
5.00368,1319
5.0094,1242
5.01513,1906
5.02085,1943
5.02657,1819
5.0323,2590
5.03802,4791
5.04373,8435
5.04947,13748
5.05518,15612
5.0609,12258
5.06663,13835
5.07235,18091
5.07807,27950
5.0838,39570
5.08952,50795
5.09523,52905
5.10095,54545
5.10668,53167
5.1124,53157
5.11812,47705
5.12385,45985
5.12957,42336
5.13528,39538
5.14102,36427
5.14673,36478
5.15245,33186
5.15818,29148
5.1639,28890
5.16962,28669
5.17535,24653
5.18107,23750
5.18678,22738
5.19252,19783
5.19823,17506
5.20395,17526
5.20968,16912
5.2154,16500
5.22112,13853
5.22683,14498
5.23257,13536
5.23828,12626
5.244,13087
5.24973,11286
5.25545,10511
5.26117,9482
5.2669,8441
5.27262,8399
5.27833,8995
5.28407,8688
5.28978,8001
5.2955,7350
5.30123,6340
5.30695,5871
5.31267,5086
5.3184,6409
5.32412,4453
5.32983,5041
5.33557,4675
5.34128,4550
5.347,4294
5.35272,4169
5.35845,4796
5.36417,3935
5.36988,2866
5.37562,4204
5.38133,3827
5.38705,3380
5.39278,3605
5.3985,3540
5.40422,3271
5.40995,2970
5.41567,1980
5.42138,3320
5.42712,2982
5.43283,2955
5.43855,2575
5.44428,2531
5.45,2041
5.45572,2295
5.46145,2042
5.46717,1893
5.47288,1971
5.4786,1794
5.48433,1902
5.49005,2289
5.49577,2153
5.5015,1767
5.50722,1489
5.51293,1743
5.51867,1772
5.52438,1523
5.5301,815
5.53583,1143
5.54155,1494
5.54727,1104
5.553,1524
5.55872,1267
5.56443,673
5.57017,1109
5.57588,544
5.5816,933
5.58733,1684
5.59305,1265
5.59877,1030
5.60448,1203
5.61022,1028
5.61593,1212
5.62165,1153
5.62738,1324
5.6331,1369
5.63882,1027
5.64455,1251
5.65027,1423
5.65598,1326
5.66172,1501
5.66743,1771
5.67315,1163
5.67888,934
5.6846,1176
5.69032,1735
5.69605,1349
5.70177,1143
5.70748,1331
5.71322,1299
5.71893,582
5.72465,939
5.73037,1130
5.7361,1069
5.74182,1344
5.74753,1273
5.75327,1230
5.75898,1002
5.7647,892
5.77043,1383
5.77615,1066
5.78187,1268
5.7876,1619
5.79332,987
5.79903,1204
5.80477,914
5.81048,530
5.8162,406
5.82193,1127
5.82765,798
5.83337,775
5.8391,1315
5.84482,711
5.85053,771
5.85625,929
5.86198,820
5.8677,1198
5.87342,616
5.87915,1312
5.88487,633
5.89058,943
5.89632,1122
5.90203,659
5.90775,499
5.91348,1188
5.9192,1353
5.92492,969
5.93065,1619
5.93637,974
5.94208,1334
5.94782,1142
5.95353,702
5.95925,949
5.96498,1149
5.9707,1796
5.97642,752
5.98213,736
5.98787,1105
5.99358,1313
5.9993,930
6.00503,845
6.01075,1043
6.01647,830
6.0222,1250
6.02792,604
6.03363,1209
6.03937,1566
6.04508,1030
6.0508,1672
6.05653,984
6.06225,1587
6.06797,793
6.0737,1202
6.07942,989
6.08513,771
6.09087,1111
6.09658,737
6.1023,751
6.10802,789
6.11375,1039
6.11947,1196
6.12518,525
6.13092,1265
6.13663,546
6.14235,931
6.14808,907
6.1538,661
6.15952,1482
6.16525,881
6.17097,898
6.17668,837
6.18242,1612
6.18813,983
6.19385,672
6.19958,1010
6.2053,555
6.21102,1011
6.21675,1017
6.22247,1086
6.22818,1003
6.23392,638
6.23963,756
6.24535,718
6.25107,896
6.2568,897
6.26252,1231
6.26823,741
6.27397,796
6.27968,1017
6.2854,650
6.29113,1351
6.29685,1177
6.30257,1115
6.3083,1044
6.31402,957
6.31973,1029
6.32547,1126
6.33118,1298
6.3369,599
6.34263,801
6.34835,1004
6.35407,836
6.3598,1158
6.36552,1428
6.37123,1275
6.37695,1310
6.38268,1037
6.3884,782
6.39412,1013
6.39985,763
6.40557,1072
6.41128,1238
6.41702,740
6.42273,1217
6.42845,455
6.43418,731
6.4399,818
6.44562,637
6.45135,1218
6.45707,626
6.46278,573
6.46852,901
6.47423,867
6.47995,1136
6.48568,646
6.4914,824
6.49712,680
6.50283,741
6.50857,1280
6.51428,571
6.52,851
6.52573,820
6.53145,1187
6.53717,650
6.5429,949
6.54862,811
6.55433,1109
6.56007,1013
6.56578,1360
6.5715,815
6.57723,1171
6.58295,775
6.58867,481
6.5944,516
6.60012,609
6.60583,478
6.61157,567
6.61728,257
6.623,565
6.62872,903
6.63445,729
6.64017,889
6.64588,832
6.65162,1014
6.65733,1136
6.66305,901
6.66878,806
6.6745,631
6.68022,1237
6.68595,934
6.69167,881
6.69738,855
6.70312,1105
6.70883,616
6.71455,950
6.72028,841
6.726,1398
6.73172,1095
6.73745,960
6.74317,929
6.74888,944
6.7546,1198
6.76033,904
6.76605,682
6.77177,702
6.7775,1285
6.78322,576
6.78893,666
6.79467,874
6.80038,636
6.8061,482
6.81183,1241
6.81755,952
6.82327,1054
6.829,816
6.83472,356
6.84043,742
6.84617,1204
6.85188,1073
6.8576,564
6.86333,720
6.86905,946
6.87477,272
6.88048,771
6.88622,1188
6.89193,685
6.89765,797
6.90338,989
6.9091,589
6.91482,514
6.92055,1113
6.92627,941
6.93198,1046
6.93772,806
6.94343,645
6.94915,851
6.95488,717
6.9606,850
6.96632,1117
6.97205,1141
6.97777,742
6.98348,624
6.98922,483
6.99493,918
7.00065,778
7.00637,558
7.0121,518
7.01782,887
7.02353,698
7.02927,1195
7.03498,477
7.0407,483
7.04643,471
7.05215,946
7.05787,912
7.0636,1565
7.06932,946
7.07503,611
7.08077,910
7.08648,560
7.0922,1001
7.09793,647
7.10365,1002
7.10937,752
7.1151,858
7.12082,1333
7.12653,1149
7.13225,1356
7.13798,845
7.1437,552
7.14942,1339
7.15515,1154
7.16087,1418
7.16658,929
7.17232,989
7.17803,724
7.18375,1039
7.18948,846
7.1952,1041
7.20092,1808
7.20665,1823
7.21237,3314
7.21808,2089
7.22382,2549
7.22953,2041
7.23525,2214
7.24098,1264
7.2467,1843
7.25242,1959
7.25813,1190
7.26387,1193
7.26958,849
7.2753,1304
7.28103,850
7.28675,1305
7.29247,1159
7.2982,2098
7.30392,2846
7.30963,2213
7.31537,1775
7.32108,1409
7.3268,1139
7.33253,749
7.33825,582
7.34397,1416
7.3497,703
7.35542,828
7.36113,1095
7.36687,753
7.37258,1398
7.3783,764
7.38402,610
7.38975,1190
7.39547,1111
7.40118,801
7.40692,674
7.41263,776
7.41835,607
7.42408,638
7.4298,818
7.43552,799
7.44125,797
7.44697,576
7.45268,812
7.45842,568
7.46413,1062
7.46985,624
7.47558,801
7.4813,1017
7.48702,933
7.49275,1141
7.49847,844
7.50418,822
7.5099,391
7.51563,541
7.52135,644
7.52707,559
7.5328,1094
7.53852,1268
7.54423,779
7.54997,687
7.55568,789
7.5614,366
7.56713,929
7.57285,726
7.57857,798
7.5843,362
7.59002,374
7.59573,997
7.60147,428
7.60718,900
7.6129,1041
7.61863,458
7.62435,643
7.63007,784
7.63578,755
7.64152,815
7.64723,1001
7.65295,878
7.65868,320
7.6644,960
7.67012,1043
7.67585,687
7.68157,1195
7.68728,907
7.69302,1030
7.69873,609
7.70445,640
7.71018,603
7.7159,762
7.72162,814
7.72735,707
7.73307,1265
7.73878,912
7.74452,1069
7.75023,860
7.75595,1304
7.76167,932
7.7674,922
7.77312,1276
7.77883,923
7.78457,645
7.79028,739
7.796,831
7.80173,892
7.80745,1374
7.81317,1350
7.8189,872
7.82462,767
7.83033,1293
7.83607,1160
7.84178,950
7.8475,1374
7.85323,1379
7.85895,863
7.86467,933
7.8704,1657
7.87612,921
7.88183,910
7.88755,829
7.89328,1014
7.899,1696
7.90472,1084
7.91045,879
7.91617,1493
7.92188,1554
7.92762,1144
7.93333,1597
7.93905,1408
7.94478,1435
7.9505,1386
7.95622,853
7.96195,675
7.96767,1716
7.97338,1209
7.97912,1260
7.98483,1031
7.99055,1038
7.99628,866
8.002,1040
8.00772,1112
8.01343,1633
8.01917,1163
8.02488,652
8.0306,1333
8.03633,1218
8.04205,1911
8.04777,1138
8.0535,1611
8.05922,935
8.06493,1242
8.07067,1613
8.07638,1458
8.0821,1231
8.08783,1724
8.09355,1053
8.09927,1111
8.105,1213
8.11072,807
8.11643,1522
8.12217,1245
8.12788,1267
8.1336,1348
8.13932,1462
8.14505,1816
8.15077,2007
8.15648,1963
8.16222,1265
8.16793,1662
8.17365,2060
8.17938,1244
8.1851,1551
8.19082,1102
8.19655,1706
8.20227,1854
8.20798,1486
8.21372,1349
8.21943,1059
8.22515,1197
8.23088,1541
8.2366,1147
8.24232,1572
8.24805,1976
8.25377,1333
8.25948,1368
8.2652,743
8.27093,1600
8.27665,1404
8.28237,1776
8.2881,1333
8.29382,1571
8.29953,1664
8.30527,1862
8.31098,1883
8.3167,1748
8.32243,1491
8.32815,2145
8.33387,2010
8.3396,1456
8.34532,1557
8.35103,1811
8.35677,1368
8.36248,1809
8.3682,1038
8.37393,1095
8.37965,1403
8.38537,1654
8.39108,1814
8.39682,1860
8.40253,881
8.40825,1926
8.41398,1202
8.4197,1901
8.42542,1402
8.43115,1523
8.43687,2206
8.44258,1398
8.44832,1044
8.45403,1936
8.45975,1664
8.46548,2139
8.4712,1483
8.47692,2296
8.48265,1623
8.48837,2385
8.49408,2352
8.49982,1641
8.50553,1477
8.51125,1970
8.51697,1513
8.5227,1684
8.52842,1778
8.53413,1803
8.53987,1572
8.54558,2143
8.5513,1358
8.55703,1254
8.56275,1467
8.56847,2055
8.5742,1455
8.57992,1533
8.58563,1148
8.59137,1091
8.59708,1732
8.6028,1223
8.60853,920
8.61425,1409
8.61997,2032
8.6257,2218
8.63142,1592
8.63713,1655
8.64285,1678
8.64858,1688
8.6543,1542
8.66002,1434
8.66575,2861
8.67147,2171
8.67718,2825
8.68292,2136
8.68863,1749
8.69435,1878
8.70008,1489
8.7058,1808
8.71152,2133
8.71725,2206
8.72297,1423
8.72868,2401
8.73442,2769
8.74013,1584
8.74585,1153
8.75158,1240
8.7573,2059
8.76302,1808
8.76873,2312
8.77447,1606
8.78018,1443
8.7859,1701
8.79163,1622
8.79735,1963
8.80307,2246
8.8088,1626
8.81452,1837
8.82023,2660
8.82597,2562
8.83168,2493
8.8374,1833
8.84313,2393
8.84885,2561
8.85457,2824
8.8603,3058
8.86602,2664
8.87173,2375
8.87747,2601
8.88318,1611
8.8889,2000
8.89462,2704
8.90035,2423
8.90607,2966
8.91178,2344
8.91752,2440
8.92323,2098
8.92895,1673
8.93468,2402
8.9404,2574
8.94612,1985
8.95185,2128
8.95757,2307
8.96328,2060
8.96902,2062
8.97473,3068
8.98045,3873
8.98618,3723
8.9919,4703
8.99762,2928
9.00335,2409
9.00907,2616
9.01478,2615
9.0205,2036
9.02623,2200
9.03195,2029
9.03767,1831
9.0434,2389
9.04912,2213
9.05483,2362
9.06057,2524
9.06628,1915
9.072,2378
9.07773,2137
9.08345,2424
9.08917,2732
9.0949,2851
9.10062,2569
9.10633,2122
9.11207,1770
9.11778,2519
9.1235,2118
9.12923,2273
9.13495,2398
9.14067,3180
9.14638,3592
9.15212,3212
9.15783,3253
9.16355,1856
9.16928,2452
9.175,2305
9.18072,2834
9.18645,1922
9.19217,2413
9.19788,2103
9.20362,2403
9.20933,2172
9.21505,1857
9.22078,1488
9.2265,2132
9.23222,2912
9.23795,2518
9.24367,2115
9.24938,2017
9.25512,2214
9.26083,1503
9.26655,1758
9.27227,1880
9.278,2367
9.28372,1961
9.28943,2009
9.29517,2091
9.30088,2649
9.3066,1464
9.31233,2058
9.31805,1692
9.32377,2199
9.3295,2026
9.33522,2557
9.34093,2272
9.34667,2691
9.35238,2307
9.3581,2207
9.36383,2329
9.36955,2341
9.37527,2252
9.381,2339
9.38672,2160
9.39243,2904
9.39815,2611
9.40388,2305
9.4096,2785
9.41532,2953
9.42105,1400
9.42677,2555
9.43248,2092
9.43822,1982
9.44393,2371
9.44965,2010
9.45538,2304
9.4611,2381
9.46682,1950
9.47255,1937
9.47827,2409
9.48398,3187
9.48972,2515
9.49543,2681
9.50115,2988
9.50688,2521
9.5126,2929
9.51832,2731
9.52403,2278
9.52977,3039
9.53548,3161
9.5412,2325
9.54693,3132
9.55265,2486
9.55837,2517
9.5641,2751
9.56982,2392
9.57553,2154
9.58127,2539
9.58698,2357
9.5927,2001
9.59843,1989
9.60415,2348
9.60987,2840
9.6156,2418
9.62132,2257
9.62703,2984
9.63277,2704
9.63848,3276
9.6442,3101
9.64992,1736
9.65565,2300
9.66137,2889
9.66708,2747
9.67282,2916
9.67853,1893
9.68425,2653
9.68998,2996
9.6957,2492
9.70142,2914
9.70715,1868
9.71287,2893
9.71858,2825
9.72432,2291
9.73003,2778
9.73575,2243
9.74148,2293
9.7472,3203
9.75292,2662
9.75865,2779
9.76437,2920
9.77008,2939
9.77582,2836
9.78153,2465
9.78725,2795
9.79297,2215
9.7987,2644
9.80442,3148
9.81013,2848
9.81587,2852
9.82158,3077
9.8273,2693
9.83303,3191
9.83875,2490
9.84447,2741
9.8502,3567
9.85592,2946
9.86163,2430
9.86737,2512
9.87308,2848
9.8788,2236
9.88453,1903
9.89025,2379
9.89597,2220
9.9017,2081
9.90742,1845
9.91313,2746
9.91885,2038
9.92458,2224
9.9303,2479
9.93602,2447
9.94175,2612
9.94747,1723
9.95318,2698
9.95892,3615
9.96463,3530
9.97035,3189
9.97608,3270
9.9818,2456
9.98752,2960
9.99325,2979
9.99897,2725
10.0047,2408
10.0104,2280
10.0161,2834
10.0219,2315
10.0276,2991
10.0333,2430
10.039,2450
10.0447,2853
10.0505,2636
10.0562,3086
10.0619,3187
10.0676,2865
10.0734,2578
10.0791,2325
10.0848,2904
10.0905,2538
10.0962,3248
10.102,1795
10.1077,2621
10.1134,2718
10.1191,3229
10.1249,1582
10.1306,2713
10.1363,3179
10.142,2341
10.1477,3036
10.1535,2905
10.1592,2635
10.1649,2084
10.1706,2653
10.1764,3012
10.1821,2079
10.1878,2795
10.1935,3048
10.1992,3505
10.205,3032
10.2107,2688
10.2164,3077
10.2221,2016
10.2279,3310
10.2336,2319
10.2393,3442
10.245,2831
10.2507,2269
10.2565,2328
10.2622,2150
10.2679,2561
10.2736,2787
10.2794,1733
10.2851,2416
10.2908,2763
10.2965,3478
10.3022,2350
10.308,2553
10.3137,2470
10.3194,3183
10.3251,2422
10.3308,3498
10.3366,3035
10.3423,2475
10.348,2299
10.3537,2445
10.3595,3102
10.3652,2707
10.3709,2707
10.3766,3113
10.3823,2083
10.3881,3172
10.3938,3150
10.3995,3078
10.4052,3124
10.411,3590
10.4167,3963
10.4224,3964
10.4281,4147
10.4338,4156
10.4396,3247
10.4453,2220
10.451,3318
10.4567,2808
10.4625,3162
10.4682,3504
10.4739,3227
10.4796,2592
10.4853,3407
10.4911,3334
10.4968,2968
10.5025,2467
10.5082,1572
10.514,2467
10.5197,3595
10.5254,3431
10.5311,3782
10.5368,2267
10.5426,3386
10.5483,2716
10.554,3439
10.5597,3134
10.5654,2846
10.5712,2731
10.5769,2645
10.5826,3299
10.5883,2585
10.5941,2728
10.5998,3043
10.6055,4051
10.6112,3956
10.6169,3847
10.6227,3655
10.6284,3888
10.6341,3055
10.6398,3712
10.6456,4544
10.6513,4259
10.657,4459
10.6627,4293
10.6684,2848
10.6742,2667
10.6799,3519
10.6856,3520
10.6913,3397
10.6971,2642
10.7028,2923
10.7085,3144
10.7142,3351
10.7199,3309
10.7257,3011
10.7314,3284
10.7371,2908
10.7428,3669
10.7486,3069
10.7543,3474
10.76,3553
10.7657,3630
10.7714,3393
10.7772,2539
10.7829,3331
10.7886,3227
10.7943,2160
10.8,3625
10.8058,3207
10.8115,2422
10.8172,3113
10.8229,3405
10.8287,3263
10.8344,3164
10.8401,3595
10.8458,4005
10.8515,2763
10.8573,3985
10.863,3090
10.8687,3404
10.8744,3360
10.8802,4265
10.8859,6686
10.8916,7333
10.8973,6636
10.903,5422
10.9088,3784
10.9145,4313
10.9202,2884
10.9259,3230
10.9317,3512
10.9374,3274
10.9431,2950
10.9488,3500
10.9545,3131
10.9603,2687
10.966,3049
10.9717,2808
10.9774,3428
10.9832,4245
10.9889,3332
10.9946,2960
11.0003,4519
11.006,4820
11.0118,4876
11.0175,5177
11.0232,4321
11.0289,5101
11.0347,4749
11.0404,4723
11.0461,5261
11.0518,4420
11.0575,4110
11.0633,4544
11.069,3656
11.0747,4007
11.0804,5841
11.0861,4311
11.0919,5569
11.0976,3996
11.1033,4508
11.109,4915
11.1148,4784
11.1205,6933
11.1262,9314
11.1319,12104
11.1376,12769
11.1434,11254
11.1491,10124
11.1548,14089
11.1605,27287
11.1663,43584
11.172,55413
11.1777,57535
11.1834,46831
11.1891,39393
11.1949,31340
11.2006,26832
11.2063,21000
11.212,19820
11.2178,18576
11.2235,17313
11.2292,16398
11.2349,14609
11.2406,13997
11.2464,13828
11.2521,13134
11.2578,11190
11.2635,11883
11.2693,11890
11.275,11402
11.2807,11450
11.2864,9648
11.2921,10077
11.2979,9915
11.3036,10106
11.3093,9436
11.315,9285
11.3207,8591
11.3265,8902
11.3322,8828
11.3379,8407
11.3436,8397
11.3494,8281
11.3551,8008
11.3608,7894
11.3665,6792
11.3722,7709
11.378,7604
11.3837,6697
11.3894,8477
11.3951,6740
11.4009,6010
11.4066,6116
11.4123,6476
11.418,6876
11.4237,7297
11.4295,6521
11.4352,7187
11.4409,8632
11.4466,8283
11.4524,8188
11.4581,7064
11.4638,6823
11.4695,6000
11.4752,6092
11.481,6654
11.4867,6452
11.4924,6026
11.4981,5900
11.5039,7305
11.5096,6292
11.5153,5623
11.521,5949
11.5267,4559
11.5325,5371
11.5382,5795
11.5439,6308
11.5496,5328
11.5553,4935
11.5611,5590
11.5668,5266
11.5725,5615
11.5782,5420
11.584,5971
11.5897,5751
11.5954,5734
11.6011,5277
11.6068,4985
11.6126,6306
11.6183,5066
11.624,4899
11.6297,5982
11.6355,6325
11.6412,5933
11.6469,5428
11.6526,6000
11.6583,5341
11.6641,5667
11.6698,5763
11.6755,5240
11.6812,4890
11.687,5458
11.6927,5118
11.6984,4977
11.7041,5872
11.7098,6806
11.7156,6980
11.7213,4937
11.727,5737
11.7327,5178
11.7385,4974
11.7442,5077
11.7499,5713
11.7556,4155
11.7613,4633
11.7671,5016
11.7728,4606
11.7785,4857
11.7842,4794
11.79,5367
11.7957,5076
11.8014,5118
11.8071,5756
11.8128,4840
11.8186,5334
11.8243,4246
11.83,5254
11.8357,5216
11.8414,4373
11.8472,5665
11.8529,5048
11.8586,4552
11.8643,5015
11.8701,4315
11.8758,4272
11.8815,4042
11.8872,5065
11.8929,4770
11.8987,4395
11.9044,3964
11.9101,5328
11.9158,5220
11.9216,5656
11.9273,4241
11.933,5314
11.9387,4998
11.9444,5517
11.9502,5327
11.9559,4589
11.9616,5348
11.9673,4949
11.9731,5143
11.9788,4757
11.9845,5355
11.9902,5508
11.9959,4938
12.0017,4420
12.0074,5547
12.0131,5524
12.0188,5506
12.0246,5422
12.0303,5467
12.036,6252
12.0417,4810
12.0474,4848
12.0532,4410
12.0589,5149
12.0646,5312
12.0703,5655
12.076,6030
12.0818,6741
12.0875,7691
12.0932,13009
12.0989,16377
12.1047,15934
12.1104,13771
12.1161,8796
12.1218,6044
12.1275,5334
12.1333,5588
12.139,6145
12.1447,5843
12.1504,4733
12.1562,4919
12.1619,5443
12.1676,4935
12.1733,5136
12.179,4815
12.1848,5899
12.1905,5250
12.1962,5350
12.2019,5186
12.2077,5318
12.2134,4532
12.2191,5126
12.2248,5909
12.2305,5571
12.2363,6018
12.242,5655
12.2477,5549
12.2534,6086
12.2592,5166
12.2649,6105
12.2706,6668
12.2763,5605
12.282,5236
12.2878,5878
12.2935,5393
12.2992,6301
12.3049,6235
12.3106,6992
12.3164,6553
12.3221,5381
12.3278,5683
12.3335,5560
12.3393,5739
12.345,5148
12.3507,6338
12.3564,6213
12.3621,5199
12.3679,6207
12.3736,6018
12.3793,6563
12.385,5504
12.3908,6694
12.3965,6750
12.4022,5789
12.4079,6016
12.4136,6411
12.4194,6363
12.4251,7277
12.4308,7358
12.4365,6853
12.4423,7090
12.448,6031
12.4537,7119
12.4594,8227
12.4651,9862
12.4709,10512
12.4766,11317
12.4823,11377
12.488,12211
12.4938,11284
12.4995,10467
12.5052,12541
12.5109,14080
12.5166,19480
12.5224,27330
12.5281,40740
12.5338,52012
12.5395,56308
12.5453,57213
12.551,55406
12.5567,50833
12.5624,48302
12.5681,45352
12.5739,43346
12.5796,38360
12.5853,35751
12.591,33185
12.5967,29550
12.6025,30457
12.6082,25201
12.6139,24320
12.6196,23560
12.6254,23089
12.6311,20942
12.6368,20080
12.6425,19949
12.6482,19106
12.654,18765
12.6597,17445
12.6654,17110
12.6711,16905
12.6769,16566
12.6826,16656
12.6883,15741
12.694,15856
12.6997,16278
12.7055,17134
12.7112,20108
12.7169,22768
12.7226,23892
12.7284,24090
12.7341,24242
12.7398,22525
12.7455,20526
12.7512,21025
12.757,19495
12.7627,18552
12.7684,19003
12.7741,18807
12.7799,16637
12.7856,15375
12.7913,14418
12.797,14602
12.8027,14501
12.8085,14169
12.8142,13812
12.8199,13912
12.8256,14185
12.8313,12134
12.8371,11854
12.8428,12817
12.8485,10981
12.8542,13107
12.86,12946
12.8657,12367
12.8714,12068
12.8771,12092
12.8828,12614
12.8886,13029
12.8943,12093
12.9,12084
12.9057,11448
12.9115,11133
12.9172,11264
12.9229,10770
12.9286,11419
12.9343,10673
12.9401,11210
12.9458,10764
12.9515,10833
12.9572,11179
12.963,10784
12.9687,11215
12.9744,10063
12.9801,10802
12.9858,9089
12.9916,11042
12.9973,10277
13.003,10239
13.0087,10030
13.0145,9681
13.0202,10246
13.0259,9763
13.0316,11119
13.0373,10020
13.0431,9722
13.0488,9338
13.0545,8954
13.0602,9475
13.0659,8479
13.0717,10583
13.0774,10196
13.0831,8804
13.0888,10111
13.0946,10590
13.1003,10791
13.106,10456
13.1117,9546
13.1174,10401
13.1232,9505
13.1289,9335
13.1346,9745
13.1403,9970
13.1461,10880
13.1518,9693
13.1575,10519
13.1632,10587
13.1689,9431
13.1747,10368
13.1804,9334
13.1861,10650
13.1918,10459
13.1976,10133
13.2033,9716
13.209,9692
13.2147,10321
13.2204,10485
13.2262,9529
13.2319,9596
13.2376,11063
13.2433,10134
13.2491,9311
13.2548,10467
13.2605,9482
13.2662,9001
13.2719,8957
13.2777,8900
13.2834,10483
13.2891,10372
13.2948,9849
13.3006,10164
13.3063,11177
13.312,9316
13.3177,9549
13.3234,9423
13.3292,9046
13.3349,10692
13.3406,10631
13.3463,11543
13.352,11186
13.3578,10585
13.3635,11214
13.3692,10546
13.3749,10840
13.3807,11254
13.3864,10425
13.3921,10920
13.3978,11723
13.4035,10904
13.4093,12177
13.415,11776
13.4207,11597
13.4264,11730
13.4322,10614
13.4379,10527
13.4436,10617
13.4493,10270
13.455,10860
13.4608,11546
13.4665,10854
13.4722,11008
13.4779,11355
13.4837,9640
13.4894,11169
13.4951,11180
13.5008,10146
13.5065,11191
13.5123,10696
13.518,10205
13.5237,10209
13.5294,11005
13.5352,10339
13.5409,10274
13.5466,11618
13.5523,10219
13.558,10699
13.5638,10907
13.5695,10488
13.5752,10125
13.5809,9682
13.5866,10932
13.5924,10074
13.5981,11474
13.6038,10727
13.6095,10816
13.6153,10166
13.621,10576
13.6267,10376
13.6324,11471
13.6381,12105
13.6439,11148
13.6496,10551
13.6553,10493
13.661,11145
13.6668,11114
13.6725,10700
13.6782,10453
13.6839,11583
13.6896,10717
13.6954,10123
13.7011,11368
13.7068,9622
13.7125,10430
13.7183,10869
13.724,10595
13.7297,10374
13.7354,9478
13.7411,10071
13.7469,11032
13.7526,11411
13.7583,11960
13.764,9906
13.7698,11904
13.7755,11756
13.7812,10790
13.7869,11085
13.7926,10997
13.7984,10378
13.8041,10918
13.8098,10123
13.8155,11331
13.8213,10583
13.827,11991
13.8327,10627
13.8384,11014
13.8441,10015
13.8499,10364
13.8556,10483
13.8613,11457
13.867,10953
13.8727,10736
13.8785,10405
13.8842,10488
13.8899,10826
13.8956,11449
13.9014,11448
13.9071,10210
13.9128,11265
13.9185,11163
13.9242,10233
13.93,10490
13.9357,11662
13.9414,12223
13.9471,13428
13.9529,16764
13.9586,17576
13.9643,21130
13.97,21323
13.9757,20083
13.9815,19174
13.9872,18508
13.9929,19540
13.9986,19585
14.0044,17971
14.0101,18970
14.0158,17376
14.0215,16200
14.0272,15626
14.033,15572
14.0387,15011
14.0444,14626
14.0501,14361
14.0559,12951
14.0616,13870
14.0673,12893
14.073,13064
14.0787,12539
14.0845,11883
14.0902,10907
14.0959,11716
14.1016,12516
14.1073,11747
14.1131,10374
14.1188,11719
14.1245,11805
14.1302,11352
14.136,11717
14.1417,11217
14.1474,11092
14.1531,11122
14.1588,11329
14.1646,11238
14.1703,10335
14.176,11970
14.1817,12362
14.1875,12196
14.1932,10138
14.1989,11609
14.2046,11422
14.2103,11233
14.2161,11425
14.2218,11756
14.2275,12407
14.2332,11124
14.239,11712
14.2447,12257
14.2504,11762
14.2561,11489
14.2618,11617
14.2676,11419
14.2733,11669
14.279,11863
14.2847,11822
14.2905,11542
14.2962,11665
14.3019,11660
14.3076,10808
14.3133,12131
14.3191,11920
14.3248,11903
14.3305,13772
14.3362,12122
14.3419,11886
14.3477,12574
14.3534,12815
14.3591,13272
14.3648,11955
14.3706,11627
14.3763,11044
14.382,12155
14.3877,12131
14.3934,12008
14.3992,12957
14.4049,12703
14.4106,12835
14.4163,12609
14.4221,12418
14.4278,13209
14.4335,12425
14.4392,12356
14.4449,11847
14.4507,13703
14.4564,14449
14.4621,13472
14.4678,12956
14.4736,13149
14.4793,14131
14.485,13540
14.4907,15268
14.4964,13084
14.5022,13017
14.5079,12450
14.5136,13105
14.5193,12185
14.5251,14032
14.5308,12504
14.5365,12795
14.5422,12936
14.5479,13729
14.5537,13613
14.5594,13547
14.5651,13652
14.5708,13018
14.5766,13238
14.5823,12800
14.588,13676
14.5937,13456
14.5994,12141
14.6052,14237
14.6109,14045
14.6166,13761
14.6223,13625
14.628,13298
14.6338,13683
14.6395,13405
14.6452,13036
14.6509,14520
14.6567,13807
14.6624,13843
14.6681,14704
14.6738,14848
14.6795,12359
14.6853,15519
14.691,14125
14.6967,13385
14.7024,14538
14.7082,14643
14.7139,13479
14.7196,13225
14.7253,14596
14.731,14355
14.7368,13306
14.7425,14247
14.7482,15262
14.7539,14614
14.7597,13879
14.7654,14658
14.7711,14866
14.7768,14390
14.7825,16033
14.7883,15701
14.794,15737
14.7997,14554
14.8054,15643
14.8112,16741
14.8169,14657
14.8226,15432
14.8283,16191
14.834,15621
14.8398,17546
14.8455,15789
14.8512,15410
14.8569,17058
14.8626,16406
14.8684,16235
14.8741,15527
14.8798,16377
14.8855,17321
14.8913,17292
14.897,18592
14.9027,18390
14.9084,18267
14.9141,18457
14.9199,17418
14.9256,17311
14.9313,16546
14.937,16913
14.9428,17018
14.9485,18693
14.9542,17857
14.9599,18245
14.9656,16011
14.9714,15651
14.9771,18390
14.9828,17366
14.9885,18556
14.9943,16727
15,17958
15.0057,18648
15.0114,18058
15.0171,19460
15.0229,17235
15.0286,17614
15.0343,18016
15.04,18360
15.0458,17754
15.0515,18554
15.0572,16975
15.0629,17975
15.0686,17574
15.0744,18521
15.0801,17527
15.0858,16492
15.0915,17587
15.0972,18003
15.103,18677
15.1087,17514
15.1144,17779
15.1201,19689
15.1259,18630
15.1316,19969
15.1373,18689
15.143,19084
15.1487,18257
15.1545,19662
15.1602,18735
15.1659,19824
15.1716,17921
15.1774,18971
15.1831,19937
15.1888,18401
15.1945,19182
15.2002,18878
15.206,17539
15.2117,19744
15.2174,18725
15.2231,19837
15.2289,19010
15.2346,20118
15.2403,21438
15.246,19835
15.2517,20147
15.2575,21448
15.2632,21000
15.2689,19271
15.2746,20508
15.2804,19545
15.2861,19587
15.2918,20895
15.2975,21187
15.3032,20097
15.309,20812
15.3147,20471
15.3204,20946
15.3261,20457
15.3319,20053
15.3376,20817
15.3433,21361
15.349,20596
15.3547,22885
15.3605,22086
15.3662,21546
15.3719,23165
15.3776,22351
15.3833,21494
15.3891,21999
15.3948,21701
15.4005,22052
15.4062,20418
15.412,21367
15.4177,23147
15.4234,22820
15.4291,21782
15.4348,22130
15.4406,22220
15.4463,21967
15.452,22129
15.4577,23123
15.4635,21958
15.4692,22556
15.4749,23098
15.4806,22792
15.4863,24357
15.4921,23165
15.4978,21611
15.5035,24219
15.5092,22049
15.515,22653
15.5207,22658
15.5264,22601
15.5321,24857
15.5378,23542
15.5436,23562
15.5493,24781
15.555,24473
15.5607,24403
15.5665,24408
15.5722,24014
15.5779,24279
15.5836,24919
15.5893,22999
15.5951,26832
15.6008,24476
15.6065,24098
15.6122,24854
15.6179,24353
15.6237,25734
15.6294,25205
15.6351,25180
15.6408,25749
15.6466,25234
15.6523,24641
15.658,25405
15.6637,25775
15.6694,24772
15.6752,25846
15.6809,25314
15.6866,24785
15.6923,27280
15.6981,26829
15.7038,25982
15.7095,25689
15.7152,26049
15.7209,26630
15.7267,26509
15.7324,25959
15.7381,27502
15.7438,27048
15.7496,27093
15.7553,27799
15.761,26841
15.7667,28071
15.7724,24281
15.7782,28048
15.7839,26642
15.7896,28437
15.7953,27952
15.8011,28485
15.8068,29079
15.8125,28093
15.8182,27978
15.8239,28958
15.8297,29743
15.8354,29262
15.8411,28273
15.8468,28853
15.8525,29740
15.8583,29419
15.864,29605
15.8697,31336
15.8754,31820
15.8812,31967
15.8869,32334
15.8926,32374
15.8983,30664
15.904,31486
15.9098,31312
15.9155,30942
15.9212,30249
15.9269,29860
15.9327,31380
15.9384,30523
15.9441,29185
15.9498,31247
15.9555,30731
15.9613,32028
15.967,30854
15.9727,30866
15.9784,31251
15.9842,33585
15.9899,30826
15.9956,34711
16.0013,31380
16.007,33456
16.0128,34420
16.0185,34921
16.0242,34193
16.0299,35284
16.0357,35770
16.0414,33015
16.0471,34835
16.0528,32975
16.0585,35554
16.0643,33940
16.07,34892
16.0757,34876
16.0814,34456
16.0872,32609
16.0929,33770
16.0986,35854
16.1043,35405
16.11,35869
16.1157,35450
16.1215,35252
16.1272,34598
16.1329,37438
16.1386,38921
16.1444,37928
16.1501,36208
16.1558,38421
16.1615,37390
16.1672,37251
16.173,38617
16.1787,35170
16.1844,36999
16.1901,37549
16.1959,38583
16.2016,35434
16.2073,38010
16.213,38246
16.2188,38898
16.2245,37125
16.2302,37853
16.2359,37619
16.2416,36712
16.2474,39310
16.2531,37187
16.2588,39726
16.2645,40058
16.2703,38121
16.276,39502
16.2817,37909
16.2874,39043
16.2931,38580
16.2989,40320
16.3046,38803
16.3103,39110
16.316,39436
16.3218,40850
16.3275,40108
16.3332,40014
16.3389,40712
16.3446,39866
16.3503,41311
16.3561,39654
16.3618,40048
16.3675,41700
16.3732,41809
16.379,42518
16.3847,41530
16.3904,42721
16.3961,42226
16.4019,40645
16.4076,40528
16.4133,43124
16.419,44771
16.4247,42064
16.4305,41945
16.4362,43573
16.4419,41576
16.4476,44958
16.4534,44204
16.4591,46461
16.4648,44556
16.4705,42953
16.4762,44936
16.482,44228
16.4877,43616
16.4934,44219
16.4991,43516
16.5049,44794
16.5106,46999
16.5163,45843
16.522,43567
16.5277,45926
16.5334,47790
16.5392,47553
16.5449,45339
16.5506,46879
16.5563,47986
16.5621,48012
16.5678,46219
16.5735,47792
16.5792,48481
16.5849,49968
16.5907,47362
16.5964,48896
16.6021,44902
16.6078,49284
16.6136,48592
16.6193,46386
16.625,48832
16.6307,47325
16.6365,48727
16.6422,49210
16.6479,50289
16.6536,49217
16.6593,48522
16.6651,47713
16.6708,49190
16.6765,50934
16.6822,49814
16.688,50568
16.6937,50498
16.6994,49838
16.7051,51472
16.7108,50455
16.7166,51573
16.7223,50531
16.728,52151
16.7337,50707
16.7395,52486
16.7452,52376
16.7509,54901
16.7566,52651
16.7623,55383
16.768,54832
16.7738,54779
16.7795,53185
16.7852,53578
16.7909,53383
16.7967,53978
16.8024,52286
16.8081,55298
16.8138,54481
16.8196,54424
16.8253,56649
16.831,53155
16.8367,57209
16.8424,56694
16.8482,55885
16.8539,56824
16.8596,55233
16.8653,55680
16.8711,56669
16.8768,58717
16.8825,57664
16.8882,56746
16.8939,56264
16.8997,56603
16.9054,59033
16.9111,55948
16.9168,59361
16.9226,59230
16.9283,56937
16.934,60347
16.9397,61171
16.9454,58735
16.9512,60992
16.9569,59604
16.9626,57802
16.9683,62826
16.974,60875
16.9798,62566
16.9855,61009
16.9912,62945
16.9969,60619
17.0026,60853
17.0084,63181
17.0141,63136
17.0198,61896
17.0255,62320
17.0313,64229
17.037,62033
17.0427,63890
17.0484,63753
17.0542,64781
17.0599,62803
17.0656,63234
17.0713,64540
17.0771,63573
17.0828,63568
17.0885,63474
17.0942,64128
17.0999,65057
17.1057,64717
17.1114,64093
17.1171,65314
17.1228,63945
17.1285,68094
17.1343,66493
17.14,63087
17.1457,63870
17.1514,63829
17.1572,65901
17.1629,64501
17.1686,67276
17.1743,67037
17.18,64752
17.1858,62524
17.1915,68255
17.1972,66740
17.2029,66092
17.2086,66000
17.2144,64791
17.2201,67409
17.2258,66852
17.2315,65400
17.2373,66132
17.243,65440
17.2487,68258
17.2544,65287
17.2601,66554
17.2659,67201
17.2716,68684
17.2773,67820
17.283,68865
17.2888,68895
17.2945,67867
17.3002,70445
17.3059,66503
17.3117,68837
17.3174,69717
17.3231,67632
17.3288,69827
17.3345,70367
17.3403,68213
17.346,69518
17.3517,66753
17.3574,69500
17.3631,69670
17.3689,68635
17.3746,69150
17.3803,71266
17.386,71152
17.3917,71162
17.3975,72192
17.4032,69074
17.4089,70325
17.4146,70209
17.4204,69310
17.4261,71871
17.4318,73005
17.4375,70685
17.4433,72596
17.449,71156
17.4547,70584
17.4604,70991
17.4661,73513
17.4719,73604
17.4776,73490
17.4833,70860
17.489,71712
17.4948,71970
17.5005,70385
17.5062,72741
17.5119,73794
17.5176,73088
17.5234,71859
17.5291,73606
17.5348,73255
17.5405,71884
17.5463,71625
17.552,73294
17.5577,73882
17.5634,71185
17.5691,74783
17.5749,74730
17.5806,74862
17.5863,73054
17.592,75872
17.5978,74514
17.6035,72892
17.6092,76869
17.6149,74071
17.6206,75421
17.6264,73910
17.6321,73827
17.6378,74570
17.6435,71668
17.6492,71633
17.655,73178
17.6607,75923
17.6664,74685
17.6721,75524
17.6778,75477
17.6836,75942
17.6893,75649
17.695,74450
17.7007,74617
17.7065,76245
17.7122,77011
17.7179,75506
17.7236,73145
17.7294,75520
17.7351,73100
17.7408,74035
17.7465,74109
17.7522,74256
17.758,74543
17.7637,72732
17.7694,74291
17.7751,74067
17.7809,75755
17.7866,78764
17.7923,74880
17.798,76081
17.8037,75218
17.8095,75116
17.8152,76148
17.8209,78376
17.8266,75817
17.8324,78313
17.8381,75540
17.8438,77129
17.8495,75025
17.8552,74651
17.861,75775
17.8667,75254
17.8724,76104
17.8781,74906
17.8838,76019
17.8896,78002
17.8953,74688
17.901,76543
17.9067,77823
17.9125,77049
17.9182,73099
17.9239,75925
17.9296,75843
17.9353,75877
17.9411,76012
17.9468,77343
17.9525,77935
17.9582,78209
17.964,75686
17.9697,76118
17.9754,74747
17.9811,76294
17.9868,76330
17.9926,77856
