C:\MSDCHEM\1\DATA\SERINA\20170928 LACTONE_STD_CURVE\2.d 28 Sep 17   3:08 pm
Start of data points
5.09268,63491
5.09842,65894
5.10413,61842
5.10985,62237
5.11558,62124
5.1213,62746
5.12702,61204
5.13275,63088
5.13847,62971
5.14418,60450
5.14992,60235
5.15563,59656
5.16135,62735
5.16708,64170
5.1728,65516
5.17852,62631
5.18423,64863
5.18997,62028
5.19568,60132
5.2014,59203
5.20713,57788
5.21285,58004
5.21857,57791
5.2243,56538
5.23002,53469
5.23573,51586
5.24147,51547
5.24718,47880
5.2529,49010
5.25863,47699
5.26435,47402
5.27007,46917
5.2758,42569
5.28152,43322
5.28723,42944
5.29297,41108
5.29868,40265
5.3044,42579
5.31012,41315
5.31585,39427
5.32157,39713
5.32728,38788
5.33302,37521
5.33873,36255
5.34445,35803
5.35018,38534
5.3559,35412
5.36162,37829
5.36735,37934
5.37307,37322
5.37878,37428
5.38452,38116
5.39023,37593
5.39595,34962
5.40168,36535
5.4074,34536
5.41312,37190
5.41885,35743
5.42457,37610
5.43028,36567
5.436,37998
5.44173,36177
5.44745,36207
5.45317,35832
5.4589,35273
5.46462,34261
5.47033,33883
5.47607,35091
5.48178,34700
5.4875,37042
5.49323,33808
5.49895,35508
5.50467,32981
5.5104,31744
5.51612,34107
5.52183,33803
5.52757,32562
5.53328,33964
5.539,32008
5.54473,34510
5.55045,33987
5.55617,31160
5.56188,31962
5.56762,31169
5.57333,31498
5.57905,31154
5.58478,31638
5.5905,28997
5.59622,29664
5.60195,30874
5.60767,31453
5.61338,28704
5.61912,30333
5.62483,30895
5.63055,30583
5.63628,31537
5.642,28850
5.64772,32689
5.65345,29326
5.65917,29037
5.66488,29271
5.67062,30151
5.67633,27628
5.68205,27904
5.68777,28752
5.6935,27790
5.69922,30013
5.70493,28968
5.71067,27424
5.71638,28775
5.7221,26980
5.72783,29795
5.73355,26840
5.73927,28452
5.745,27372
5.75072,28386
5.75643,26991
5.76217,28830
5.76788,27919
5.7736,26024
5.77933,27314
5.78505,27791
5.79077,29956
5.7965,28018
5.80222,32935
5.80793,35475
5.81365,42043
5.81938,50051
5.8251,68933
5.83082,89815
5.83655,99149
5.84227,96823
5.84798,86604
5.85372,70481
5.85943,61722
5.86515,54009
5.87088,47480
5.8766,42132
5.88232,39861
5.88805,39642
5.89377,36246
5.89948,33842
5.90522,33478
5.91093,33101
5.91665,31297
5.92238,30667
5.9281,29715
5.93382,29387
5.93953,27472
5.94527,26831
5.95098,26507
5.9567,27943
5.96243,26786
5.96815,29522
5.97387,40833
5.9796,68975
5.98532,121404
5.99103,193678
5.99677,279955
6.00248,391717
6.0082,467446
6.01393,502015
6.01965,450365
6.02537,342808
6.0311,248161
6.03682,173755
6.04253,123301
6.04827,95433
6.05398,73462
6.0597,60099
6.06542,53290
6.07115,46845
6.07687,40481
6.08258,39902
6.08832,37604
6.09403,32451
6.09975,31579
6.10548,30943
6.1112,27523
6.11692,26182
6.12265,23406
6.12837,24788
6.13408,26447
6.13982,23571
6.14553,25182
6.15125,24362
6.15698,25015
6.1627,23735
6.16842,23943
6.17415,25033
6.17987,24407
6.18558,22164
6.1913,22119
6.19703,24447
6.20275,23313
6.20847,25424
6.2142,22824
6.21992,25012
6.22563,23301
6.23137,23400
6.23708,24443
6.2428,25726
6.24853,24909
6.25425,25657
6.25997,24689
6.2657,25685
6.27142,26126
6.27713,27619
6.28287,25813
6.28858,28014
6.2943,27131
6.30003,26284
6.30575,26739
6.31147,23641
6.31718,24941
6.32292,24107
6.32863,22309
6.33435,23625
6.34008,24858
6.3458,22042
6.35152,23792
6.35725,24888
6.36297,22377
6.36868,22901
6.37442,22653
6.38013,23671
6.38585,26203
6.39158,24934
6.3973,22724
6.40302,22613
6.40875,23384
6.41447,22367
6.42018,21874
6.42592,21785
6.43163,20797
6.43735,22546
6.44307,22343
6.4488,22709
6.45452,21148
6.46023,21546
6.46597,22609
6.47168,23313
6.4774,21048
6.48313,23302
6.48885,21933
6.49457,21015
6.5003,22340
6.50602,21223
6.51173,23018
6.51747,21460
6.52318,22356
6.5289,21782
6.53463,19456
6.54035,20658
6.54607,20301
6.5518,20684
6.55752,22520
6.56323,22010
6.56895,22030
6.57468,22698
6.5804,22567
6.58612,22218
6.59185,21922
6.59757,21516
6.60328,20546
6.60902,21976
6.61473,21631
6.62045,23070
6.62618,22607
6.6319,25090
6.63762,24410
6.64335,24454
6.64907,24548
6.65478,22654
6.66052,23780
6.66623,22644
6.67195,21700
6.67768,20327
6.6834,22280
6.68912,24054
6.69483,21860
6.70057,21029
6.70628,20586
6.712,20780
6.71773,21843
6.72345,20707
6.72917,21090
6.7349,22046
6.74062,20539
6.74633,21857
6.75207,20158
6.75778,21955
6.7635,18764
6.76923,18490
6.77495,21214
6.78067,21260
6.7864,22834
6.79212,19899
6.79783,19175
6.80357,21257
6.80928,20338
6.815,20432
6.82073,20026
6.82645,20821
6.83217,19745
6.83788,21237
6.84362,20581
6.84933,20132
6.85505,19815
6.86078,20054
6.8665,20752
6.87222,18523
6.87795,19983
6.88367,20002
6.88938,19325
6.89512,20029
6.90083,19319
6.90655,20042
6.91228,19344
6.918,20017
6.92372,18234
6.92945,19307
6.93517,19472
6.94088,20863
6.94662,18528
6.95233,18962
6.95805,19533
6.96377,19523
6.9695,20694
6.97522,19167
6.98093,19685
6.98667,20697
6.99238,20045
6.9981,20344
7.00383,19616
7.00955,21183
7.01527,20343
7.021,19199
7.02672,19982
7.03243,18319
7.03817,19716
7.04388,19932
7.0496,20120
7.05533,20286
7.06105,18457
7.06677,19503
7.0725,20842
7.07822,19744
7.08393,18659
7.08965,19921
7.09538,18698
7.1011,20480
7.10682,19629
7.11255,19372
7.11827,20033
7.12398,18630
7.12972,19590
7.13543,18794
7.14115,19679
7.14688,19844
7.1526,19216
7.15832,18966
7.16405,18906
7.16977,21590
7.17548,19869
7.18122,20114
7.18693,20755
7.19265,20800
7.19838,20701
7.2041,20992
7.20982,20400
7.21553,20916
7.22127,20099
7.22698,18492
7.2327,17436
7.23843,18055
7.24415,20072
7.24987,19933
7.2556,18999
7.26132,18072
7.26703,17867
7.27277,19021
7.27848,18266
7.2842,18109
7.28993,20416
7.29565,17862
7.30137,18067
7.3071,19815
7.31282,20556
7.31853,19873
7.32427,17686
7.32998,19979
7.3357,20325
7.34142,19791
7.34715,20935
7.35287,18770
7.35858,17534
7.36432,18594
7.37003,20585
7.37575,19413
7.38148,17557
7.3872,19414
7.39292,18521
7.39865,20224
7.40437,18796
7.41008,17849
7.41582,18459
7.42153,17657
7.42725,17952
7.43298,21013
7.4387,18439
7.44442,18511
7.45015,19678
7.45587,19503
7.46158,20228
7.4673,20089
7.47303,20487
7.47875,19877
7.48447,20278
7.4902,19122
7.49592,20632
7.50163,19637
7.50737,21065
7.51308,18707
7.5188,19619
7.52453,17516
7.53025,18099
7.53597,19537
7.5417,19685
7.54742,18826
7.55313,18630
7.55887,21598
7.56458,33551
7.5703,66764
7.57603,137030
7.58175,227201
7.58747,299225
7.59318,303255
7.59892,234995
7.60463,148324
7.61035,77738
7.61608,44790
7.6218,30736
7.62752,25609
7.63325,20112
7.63897,20707
7.64468,20263
7.65042,21362
7.65613,19920
7.66185,18407
7.66758,18956
7.6733,19321
7.67902,20695
7.68475,19836
7.69047,20553
7.69618,18776
7.70192,18802
7.70763,18899
7.71335,18030
7.71907,18535
7.7248,19239
7.73052,18332
7.73623,18735
7.74197,19911
7.74768,18213
7.7534,19617
7.75913,18577
7.76485,18453
7.77057,20092
7.7763,18378
7.78202,19652
7.78773,18349
7.79347,19611
7.79918,17919
7.8049,19435
7.81063,17237
7.81635,19115
7.82207,19951
7.8278,20063
7.83352,19964
7.83923,18326
7.84495,18241
7.85068,19340
7.8564,19874
7.86212,19574
7.86785,19450
7.87357,18388
7.87928,17598
7.88502,20138
7.89073,19302
7.89645,19664
7.90218,18372
7.9079,18504
7.91362,19472
7.91935,19271
7.92507,20624
7.93078,21421
7.93652,23246
7.94223,23020
7.94795,19523
7.95368,21010
7.9594,18200
7.96512,19303
7.97083,18431
7.97657,19887
7.98228,18277
7.988,18046
7.99373,18182
7.99945,17686
8.00517,19287
8.0109,18212
8.01662,18650
8.02233,20201
8.02807,24628
8.03378,32298
8.0395,41760
8.04523,44716
8.05095,42046
8.05667,38827
8.0624,34786
8.06812,31867
8.07383,27700
8.07957,29356
8.08528,27087
8.091,25361
8.09672,24922
8.10245,24217
8.10817,26122
8.11388,22641
8.11962,22861
8.12533,20815
8.13105,21919
8.13678,22104
8.1425,19144
8.14822,22372
8.15395,21237
8.15967,21129
8.16538,20325
8.17112,21305
8.17683,21198
8.18255,18892
8.18828,20064
8.194,21157
8.19972,19755
8.20545,19517
8.21117,20650
8.21688,20916
8.2226,20632
8.22833,18999
8.23405,17414
8.23977,18741
8.2455,19269
8.25122,19062
8.25693,19898
8.26267,18265
8.26838,18299
8.2741,20312
8.27983,17985
8.28555,19042
8.29127,17639
8.297,17626
8.30272,18363
8.30843,18647
8.31417,19775
8.31988,19889
8.3256,21009
8.33133,20292
8.33705,20087
8.34277,20740
8.34848,20359
8.35422,18299
8.35993,19828
8.36565,17708
8.37138,18560
8.3771,17306
8.38282,17553
8.38855,17193
8.39427,16290
8.39998,19634
8.40572,18874
8.41143,17677
8.41715,19364
8.42288,19466
8.4286,18456
8.43432,18657
8.44005,17201
8.44577,17094
8.45148,18294
8.45722,18795
8.46293,17270
8.46865,16319
8.47437,18450
8.4801,19057
8.48582,17079
8.49153,17427
8.49727,17131
8.50298,17371
8.5087,17385
8.51443,18467
8.52015,21024
8.52587,18025
8.5316,19016
8.53732,18988
8.54303,18184
8.54877,17618
8.55448,17404
8.5602,17669
8.56593,17838
8.57165,17484
8.57737,17355
8.5831,17943
8.58882,18061
8.59453,18863
8.60025,17057
8.60598,17965
8.6117,17893
8.61742,18167
8.62315,18449
8.62887,17249
8.63458,17647
8.64032,18735
8.64603,16792
8.65175,17435
8.65748,17450
8.6632,17410
8.66892,17772
8.67465,18223
8.68037,17924
8.68608,16926
8.69182,17692
8.69753,18799
8.70325,16891
8.70898,16814
8.7147,17650
8.72042,17344
8.72613,17090
8.73187,18711
8.73758,18127
8.7433,17910
8.74903,17884
8.75475,17528
8.76047,17701
8.7662,17960
8.77192,18146
8.77763,18461
8.78337,18101
8.78908,16986
8.7948,17638
8.80053,17148
8.80625,16910
8.81197,18284
8.8177,18393
8.82342,17265
8.82913,17369
8.83487,17089
8.84058,17515
8.8463,17114
8.85202,18060
8.85775,16482
8.86347,17599
8.86918,16386
8.87492,17752
8.88063,18007
8.88635,18866
8.89208,16843
8.8978,19182
8.90352,17314
8.90925,16694
8.91497,19007
8.92068,18699
8.92642,17862
8.93213,17870
8.93785,17843
8.94358,19259
8.9493,18254
8.95502,19420
8.96075,21895
8.96647,32776
8.97218,64418
8.9779,133964
8.98363,193910
8.98935,228135
8.99507,205605
9.0008,137236
9.00652,72709
9.01223,36563
9.01797,22586
9.02368,19006
9.0294,18421
9.03513,17702
9.04085,18530
9.04657,16379
9.0523,17802
9.05802,18545
9.06373,18208
9.06947,17450
9.07518,18639
9.0809,17642
9.08663,18606
9.09235,17102
9.09807,18495
9.10378,18048
9.10952,17069
9.11523,16907
9.12095,16656
9.12668,18301
9.1324,16982
9.13812,19894
9.14385,19592
9.14957,20581
9.15528,21623
9.16102,22051
9.16673,21606
9.17245,20509
9.17818,18486
9.1839,18706
9.18962,19566
9.19535,17843
9.20107,17190
9.20678,19729
9.21252,17958
9.21823,18338
9.22395,16376
9.22967,18921
9.2354,19049
9.24112,19827
9.24683,18850
9.25257,19744
9.25828,17497
9.264,18135
9.26973,16599
9.27545,17400
9.28117,17081
9.2869,18326
9.29262,18107
9.29833,17007
9.30407,18391
9.30978,17935
9.3155,17913
9.32123,18036
9.32695,17925
9.33267,18572
9.3384,19258
9.34412,17572
9.34983,17496
9.35555,16290
9.36128,17150
9.367,15668
9.37272,17071
9.37845,18174
9.38417,18702
9.38988,18590
9.39562,18614
9.40133,19205
9.40705,18263
9.41278,17391
9.4185,18490
9.42422,18009
9.42995,17959
9.43567,16726
9.44138,19101
9.44712,19620
9.45283,19176
9.45855,18636
9.46428,17653
9.47,18414
9.47572,18322
9.48143,17663
9.48717,18356
9.49288,17974
9.4986,19085
9.50433,17926
9.51005,17361
9.51577,19316
9.5215,20953
9.52722,20948
9.53293,21059
9.53867,22493
9.54438,23144
9.5501,21899
9.55583,23743
9.56155,22714
9.56727,22006
9.573,23022
9.57872,21372
9.58443,21103
9.59017,21854
9.59588,20681
9.6016,19488
9.60732,19865
9.61305,20129
9.61877,21399
9.62448,19789
9.63022,20893
9.63593,20955
9.64165,20130
9.64738,21407
9.6531,20847
9.65882,21489
9.66455,22282
9.67027,23166
9.67598,22634
9.68172,26426
9.68743,35141
9.69315,51299
9.69888,76070
9.7046,89991
9.71032,91934
9.71605,87555
9.72177,81552
9.72748,74828
9.7332,72692
9.73893,64826
9.74465,59926
9.75037,55446
9.7561,50238
9.76182,45247
9.76753,44097
9.77327,40175
9.77898,37031
9.7847,36615
9.79043,34261
9.79615,33943
9.80187,33867
9.8076,30125
9.81332,31612
9.81903,26641
9.82477,27694
9.83048,27043
9.8362,27275
9.84193,28126
9.84765,26268
9.85337,28102
9.85908,27079
9.86482,27929
9.87053,25319
9.87625,26820
9.88198,24793
9.8877,24160
9.89342,21907
9.89915,22398
9.90487,23192
9.91058,25498
9.91632,25055
9.92203,26304
9.92775,25099
9.93348,23229
9.9392,24131
9.94492,25359
9.95065,24322
9.95637,24512
9.96208,25792
9.96782,24650
9.97353,23051
9.97925,25633
9.98497,25826
9.9907,25972
9.99642,24893
10.0021,22916
10.0079,25445
10.0136,23892
10.0193,23497
10.025,23947
10.0308,21556
10.0365,23829
10.0422,22440
10.0479,21594
10.0536,24606
10.0594,23065
10.0651,23762
10.0708,23967
10.0765,22362
10.0823,20953
10.088,20438
10.0937,22493
10.0994,21841
10.1051,20996
10.1109,23847
10.1166,22622
10.1223,22561
10.128,22716
10.1338,22150
10.1395,22712
10.1452,23055
10.1509,21377
10.1566,21207
10.1624,23202
10.1681,23190
10.1738,22907
10.1795,23084
10.1853,20587
10.191,21263
10.1967,22629
10.2024,23504
10.2081,21927
10.2139,21439
10.2196,21549
10.2253,23301
10.231,24508
10.2367,34516
10.2425,67696
10.2482,116206
10.2539,162906
10.2596,179471
10.2654,153461
10.2711,104785
10.2768,58112
10.2825,31202
10.2882,23854
10.294,22328
10.2997,22667
10.3054,21087
10.3111,22476
10.3169,21540
10.3226,22219
10.3283,21245
10.334,20627
10.3397,19861
10.3455,21628
10.3512,23155
10.3569,22306
10.3626,22054
10.3684,19598
10.3741,21093
10.3798,21196
10.3855,21180
10.3912,20525
10.397,21523
10.4027,22172
10.4084,20872
10.4141,20813
10.4199,21873
10.4256,21948
10.4313,21093
10.437,22091
10.4427,20874
10.4485,21752
10.4542,21928
10.4599,20137
10.4656,21245
10.4714,21947
10.4771,22203
10.4828,19841
10.4885,20125
10.4942,22412
10.5,20888
10.5057,21052
10.5114,20439
10.5171,21114
10.5228,21805
10.5286,20204
10.5343,21321
10.54,20756
10.5457,20626
10.5515,20578
10.5572,21506
10.5629,20111
10.5686,20922
10.5743,19987
10.5801,20120
10.5858,20416
10.5915,21319
10.5972,20736
10.603,23424
10.6087,24653
10.6144,27244
10.6201,26973
10.6258,24919
10.6316,23431
10.6373,21829
10.643,21959
10.6487,21135
10.6545,22942
10.6602,23213
10.6659,22141
10.6716,21266
10.6773,22199
10.6831,21967
10.6888,22883
10.6945,23118
10.7002,23345
10.706,23666
10.7117,22912
10.7174,23450
10.7231,23278
10.7288,21935
10.7346,23112
10.7403,21404
10.746,21577
10.7517,23360
10.7574,20377
10.7632,21486
10.7689,20383
10.7746,21281
10.7803,22148
10.7861,21570
10.7918,22240
10.7975,22382
10.8032,21932
10.8089,21467
10.8147,22054
10.8204,21810
10.8261,19520
10.8318,20190
10.8376,21062
10.8433,21960
10.849,22414
10.8547,21075
10.8604,21201
10.8662,20975
10.8719,22526
10.8776,21936
10.8833,21221
10.8891,21963
10.8948,21545
10.9005,22003
10.9062,22191
10.9119,23434
10.9177,23135
10.9234,21978
10.9291,22420
10.9348,22130
10.9406,23278
10.9463,22953
10.952,23737
10.9577,23543
10.9634,24551
10.9692,24086
10.9749,23033
10.9806,24191
10.9863,26438
10.9921,26729
10.9978,27496
11.0035,28106
11.0092,30473
11.0149,34557
11.0207,35354
11.0264,33606
11.0321,35846
11.0378,41255
11.0435,49069
11.0493,61786
11.055,77798
11.0607,88039
11.0664,101274
11.0722,109658
11.0779,113970
11.0836,116190
11.0893,113915
11.095,111532
11.1008,107211
11.1065,100849
11.1122,95802
11.1179,89716
11.1237,79256
11.1294,76179
11.1351,70322
11.1408,70502
11.1465,64909
11.1523,62427
11.158,59404
11.1637,53669
11.1694,52092
11.1752,50058
11.1809,48548
11.1866,47151
11.1923,48337
11.198,43101
11.2038,44623
11.2095,46348
11.2152,44089
11.2209,44571
11.2267,47007
11.2324,47820
11.2381,47939
11.2438,50083
11.2495,53311
11.2553,55174
11.261,55590
11.2667,56138
11.2724,51936
11.2781,51128
11.2839,48560
11.2896,44663
11.2953,43904
11.301,40664
11.3068,42636
11.3125,40272
11.3182,37712
11.3239,36583
11.3296,34986
11.3354,37259
11.3411,34462
11.3468,34463
11.3525,34503
11.3583,33207
11.364,33413
11.3697,33061
11.3754,30561
11.3811,31692
11.3869,32746
11.3926,30764
11.3983,32983
11.404,39026
11.4098,54661
11.4155,84111
11.4212,125662
11.4269,159979
11.4326,163473
11.4384,135186
11.4441,87792
11.4498,55830
11.4555,36546
11.4613,31198
11.467,28565
11.4727,27327
11.4784,28526
11.4841,28015
11.4899,29765
11.4956,30678
11.5013,30073
11.507,29916
11.5127,28301
11.5185,27341
11.5242,28748
11.5299,25190
11.5356,26975
11.5414,28147
11.5471,26181
11.5528,27645
11.5585,26496
11.5642,26185
11.57,25503
11.5757,27208
11.5814,25345
11.5871,26678
11.5929,26416
11.5986,27288
11.6043,26165
11.61,26948
11.6157,26672
11.6215,24168
11.6272,26131
11.6329,27139
11.6386,27141
11.6444,26172
11.6501,26770
11.6558,25716
11.6615,26059
11.6672,26257
11.673,26402
11.6787,26554
11.6844,27162
11.6901,24757
11.6959,25610
11.7016,25780
11.7073,24789
11.713,24827
11.7187,26693
11.7245,26883
11.7302,25380
11.7359,25690
11.7416,25942
11.7474,27089
11.7531,24595
11.7588,24759
11.7645,25783
11.7702,24947
11.776,26325
11.7817,25479
11.7874,25519
11.7931,25041
11.7988,25210
11.8046,26696
11.8103,26541
11.816,27415
11.8217,25336
11.8275,26979
11.8332,25321
11.8389,25315
11.8446,24925
11.8503,24459
11.8561,24742
11.8618,26349
11.8675,27539
11.8732,29823
11.879,31563
11.8847,31239
11.8904,29515
11.8961,28331
11.9018,26349
11.9076,26858
11.9133,26739
11.919,27719
11.9247,26529
11.9305,25209
11.9362,25909
11.9419,24758
11.9476,24494
11.9533,23726
11.9591,24101
11.9648,24015
11.9705,23670
11.9762,24804
11.982,22760
11.9877,24038
11.9934,23771
11.9991,24654
12.0048,24008
12.0106,24395
12.0163,23866
12.022,23697
12.0277,24526
12.0334,23871
12.0392,24790
12.0449,23540
12.0506,24725
12.0563,25401
12.0621,25757
12.0678,24733
12.0735,25987
12.0792,26487
12.0849,27229
12.0907,26387
12.0964,29727
12.1021,26927
12.1078,25341
12.1136,25726
12.1193,25158
12.125,25508
12.1307,23409
12.1364,25129
12.1422,24536
12.1479,27739
12.1536,25589
12.1593,26166
12.1651,23649
12.1708,25255
12.1765,26210
12.1822,25520
12.1879,25639
12.1937,25525
12.1994,25215
12.2051,24715
12.2108,23536
12.2166,24956
12.2223,23767
12.228,24864
12.2337,23682
12.2394,23816
12.2452,26281
12.2509,24663
12.2566,26571
12.2623,28399
12.268,26260
12.2738,26753
12.2795,27165
12.2852,24413
12.2909,24040
12.2967,25370
12.3024,23222
12.3081,25578
12.3138,27511
12.3195,24945
12.3253,25045
12.331,25330
12.3367,25104
12.3424,24669
12.3482,25047
12.3539,25477
12.3596,26022
12.3653,26760
12.371,24396
12.3768,24194
12.3825,25554
12.3882,24978
12.3939,25360
12.3997,25118
12.4054,26388
12.4111,26706
12.4168,27250
12.4225,25694
12.4283,25322
12.434,26314
12.4397,26374
12.4454,25197
12.4512,26107
12.4569,24619
12.4626,26713
12.4683,31501
12.474,40801
12.4798,62066
12.4855,97278
12.4912,143458
12.4969,166428
12.5027,157952
12.5084,122654
12.5141,78989
12.5198,49376
12.5255,39885
12.5313,34586
12.537,32547
12.5427,32059
12.5484,32899
12.5541,32982
12.5599,32002
12.5656,31123
12.5713,31124
12.577,31797
12.5828,30628
12.5885,31091
12.5942,29874
12.5999,28518
12.6056,30126
12.6114,30024
12.6171,29442
12.6228,28649
12.6285,30522
12.6343,29627
12.64,28749
12.6457,27148
12.6514,30089
12.6571,27651
12.6629,28020
12.6686,27995
12.6743,27837
12.68,29283
12.6858,27097
12.6915,29579
12.6972,27828
12.7029,27603
12.7086,29911
12.7144,30008
12.7201,29496
12.7258,27670
12.7315,30251
12.7373,28415
12.743,29164
12.7487,27483
12.7544,26956
12.7601,27331
12.7659,26756
12.7716,27263
12.7773,27805
12.783,29700
12.7887,28902
12.7945,27385
12.8002,27568
12.8059,29131
12.8116,28294
12.8174,28979
12.8231,28144
12.8288,29582
12.8345,31766
12.8402,29092
12.846,30136
12.8517,29286
12.8574,30341
12.8631,29973
12.8689,29327
12.8746,27302
12.8803,28748
12.886,28894
12.8917,29159
12.8975,27953
12.9032,27985
12.9089,28814
12.9146,29720
12.9204,29488
12.9261,30650
12.9318,29464
12.9375,29990
12.9432,28918
12.949,28212
12.9547,30202
12.9604,28552
12.9661,28245
12.9719,29641
12.9776,28891
12.9833,28628
12.989,29405
12.9947,29998
13.0005,28892
13.0062,29578
13.0119,30246
13.0176,30320
13.0233,29841
13.0291,29726
13.0348,30990
13.0405,31277
13.0462,30390
13.052,31170
13.0577,31277
13.0634,30612
13.0691,29829
13.0748,29068
13.0806,31943
13.0863,31908
13.092,30993
13.0977,32928
13.1035,31169
13.1092,30363
13.1149,31160
13.1206,30564
13.1263,29733
13.1321,32089
13.1378,31089
13.1435,32634
13.1492,31915
13.155,33199
13.1607,36912
13.1664,39467
13.1721,42044
13.1778,39286
13.1836,38044
13.1893,33815
13.195,34656
13.2007,33287
13.2065,35058
13.2122,35206
13.2179,36396
13.2236,33837
13.2293,38752
13.2351,37103
13.2408,34634
13.2465,34680
13.2522,36927
13.258,34998
13.2637,32457
13.2694,32821
13.2751,35283
13.2808,33002
13.2866,34399
13.2923,35446
13.298,35766
13.3037,34516
13.3094,37028
13.3152,36045
13.3209,35506
13.3266,36834
13.3323,35007
13.3381,39878
13.3438,37051
13.3495,37796
13.3552,36814
13.3609,39391
13.3667,36199
13.3724,36143
13.3781,34865
13.3838,39278
13.3896,39180
13.3953,39043
13.401,38982
13.4067,36115
13.4124,40064
13.4182,39678
13.4239,35866
13.4296,38039
13.4353,38657
13.4411,38839
13.4468,41515
13.4525,41974
13.4582,42716
13.4639,57708
13.4697,81376
13.4754,125686
13.4811,169866
13.4868,187910
13.4926,169786
13.4983,129659
13.504,89778
13.5097,66333
13.5154,52056
13.5212,48332
13.5269,43903
13.5326,46246
13.5383,45089
13.544,44859
13.5498,43452
13.5555,43998
13.5612,40613
13.5669,42830
13.5727,42138
13.5784,42785
13.5841,40695
13.5898,43244
13.5955,41784
13.6013,41852
13.607,41982
13.6127,44364
13.6184,43649
13.6242,42308
13.6299,43059
13.6356,46866
13.6413,42738
13.647,44253
13.6528,45479
13.6585,46332
13.6642,43966
13.6699,44640
13.6757,41901
13.6814,45477
13.6871,45092
13.6928,44743
13.6985,45789
13.7043,42744
13.71,45566
13.7157,41874
13.7214,45327
13.7272,46246
13.7329,46835
13.7386,43811
13.7443,45185
13.75,47089
13.7558,51497
13.7615,55770
13.7672,62494
13.7729,60524
13.7786,61372
13.7844,51735
13.7901,48472
13.7958,49599
13.8015,48072
13.8073,48049
13.813,47106
13.8187,49683
13.8244,47294
13.8301,47822
13.8359,49028
13.8416,48118
13.8473,51994
13.853,56727
13.8588,59664
13.8645,67617
13.8702,71949
13.8759,69617
13.8816,68522
13.8874,61439
13.8931,61453
13.8988,59426
13.9045,57747
13.9103,57098
13.916,52906
13.9217,53019
13.9274,51597
13.9331,52225
13.9389,50253
13.9446,50494
13.9503,51202
13.956,54856
13.9618,58915
13.9675,56916
13.9732,61683
13.9789,62235
13.9846,58414
13.9904,56837
13.9961,55736
14.0018,56533
14.0075,54267
14.0133,54737
14.019,53885
14.0247,55825
14.0304,53465
14.0361,55724
14.0419,54976
14.0476,55558
14.0533,54934
14.059,55166
14.0647,56326
14.0705,55700
14.0762,55080
14.0819,58859
14.0876,57589
14.0934,54897
14.0991,54944
14.1048,58438
14.1105,56699
14.1162,55726
14.122,53433
14.1277,56562
14.1334,55840
14.1391,55908
14.1449,58556
14.1506,59821
14.1563,59963
14.162,60026
14.1677,58685
14.1735,58171
14.1792,59938
14.1849,59483
14.1906,60284
14.1964,60352
14.2021,58000
14.2078,60952
14.2135,57612
14.2192,56113
14.225,60212
14.2307,59816
14.2364,56943
14.2421,59854
14.2479,61870
14.2536,59731
14.2593,63007
14.265,60662
14.2707,59774
14.2765,62863
14.2822,61441
14.2879,63577
14.2936,61554
14.2993,62243
14.3051,61762
14.3108,61481
14.3165,63253
14.3222,65815
14.328,64537
14.3337,62675
14.3394,65578
14.3451,65712
14.3508,64426
14.3566,65668
14.3623,64185
14.368,65714
14.3737,65958
14.3795,66105
14.3852,68233
14.3909,78663
14.3966,99102
14.4023,132697
14.4081,182872
14.4138,215175
14.4195,221371
14.4252,194456
14.431,147575
14.4367,110262
14.4424,93801
14.4481,80766
14.4538,79821
14.4596,78328
14.4653,74170
14.471,75435
14.4767,75241
14.4825,77628
14.4882,76436
14.4939,74700
14.4996,76202
14.5053,77554
14.5111,78538
14.5168,78532
14.5225,78232
14.5282,77383
14.5339,74696
14.5397,74314
14.5454,77102
14.5511,78555
14.5568,74663
14.5626,78030
14.5683,78994
14.574,79370
14.5797,77051
14.5854,80104
14.5912,79617
14.5969,78626
14.6026,81921
14.6083,77493
14.6141,79845
14.6198,79079
14.6255,78401
14.6312,79537
14.6369,76925
14.6427,82676
14.6484,81901
14.6541,79773
14.6598,79676
14.6656,80116
14.6713,79097
14.677,81245
14.6827,77603
14.6884,78854
14.6942,82600
14.6999,80216
14.7056,84192
14.7113,85375
14.7171,82701
14.7228,82748
14.7285,84722
14.7342,81637
14.7399,78234
14.7457,82942
14.7514,84958
14.7571,85038
14.7628,83133
14.7686,84937
14.7743,85048
14.78,85677
14.7857,85452
14.7914,84625
14.7972,83908
14.8029,84608
14.8086,86614
14.8143,87161
14.82,87630
14.8258,86509
14.8315,89869
14.8372,88679
14.8429,87627
14.8487,91124
14.8544,89459
14.8601,89445
14.8658,89607
14.8715,91737
14.8773,91118
14.883,92122
14.8887,92392
14.8944,92196
14.9002,92577
14.9059,92608
14.9116,93235
14.9173,90743
14.923,89768
14.9288,94374
14.9345,95474
14.9402,93857
14.9459,92315
14.9517,97359
14.9574,97088
14.9631,96851
14.9688,96253
14.9745,94450
14.9803,98045
14.986,95070
14.9917,98382
14.9974,99113
15.0032,99644
15.0089,97272
15.0146,97469
15.0203,98402
15.026,102041
15.0318,100238
15.0375,98522
15.0432,100069
15.0489,102327
15.0546,101620
15.0604,98371
15.0661,100436
15.0718,103091
15.0775,102479
15.0833,100756
15.089,103904
15.0947,104308
15.1004,104818
15.1061,105951
15.1119,102817
15.1176,106108
15.1233,105704
15.129,107766
15.1348,108252
15.1405,104701
15.1462,107268
15.1519,108499
15.1576,106858
15.1634,106377
15.1691,107720
15.1748,108082
15.1805,109912
15.1863,110803
15.192,114710
15.1977,109330
15.2034,113664
15.2091,115022
15.2149,112239
15.2206,112907
15.2263,116108
15.232,112333
15.2378,111169
15.2435,111821
15.2492,112884
15.2549,115042
15.2606,121779
15.2664,133656
15.2721,157525
15.2778,203409
15.2835,253239
15.2892,285366
15.295,277676
15.3007,233536
15.3064,193726
15.3121,159166
15.3179,139532
15.3236,136188
15.3293,128340
15.335,128987
15.3407,130363
15.3465,129127
15.3522,129324
15.3579,130995
15.3636,130555
15.3694,130600
15.3751,132001
15.3808,130960
15.3865,132017
15.3922,131770
15.398,133529
15.4037,133268
15.4094,133438
15.4151,131443
15.4209,129230
15.4266,135436
15.4323,131920
15.438,134449
15.4437,136288
15.4495,134960
15.4552,131491
15.4609,132355
15.4666,134056
15.4724,135132
15.4781,134377
15.4838,134194
15.4895,140047
15.4952,138372
15.501,135489
15.5067,136793
15.5124,137927
15.5181,143467
15.5239,138484
15.5296,140544
15.5353,140574
15.541,142591
15.5467,143150
15.5525,143068
15.5582,145970
15.5639,140641
15.5696,142833
15.5753,144395
15.5811,143629
15.5868,144921
15.5925,147195
15.5982,150061
15.604,146588
15.6097,147136
15.6154,148178
15.6211,145652
15.6268,148570
15.6326,147157
15.6383,154442
15.644,151128
15.6497,148592
15.6555,149309
15.6612,146132
15.6669,149890
15.6726,152817
15.6783,152410
15.6841,157287
15.6898,153599
15.6955,154393
15.7012,159148
15.707,156061
15.7127,157389
15.7184,158820
15.7241,159372
15.7298,153062
15.7356,157868
15.7413,163871
15.747,160731
15.7527,161987
15.7585,158676
15.7642,162091
15.7699,163935
15.7756,160698
15.7813,165684
15.7871,167108
15.7928,167279
15.7985,164538
15.8042,164889
15.8099,166427
15.8157,163479
15.8214,171780
15.8271,166974
15.8328,171445
15.8386,169528
15.8443,173221
15.85,174399
15.8557,172742
15.8614,168230
15.8672,177482
15.8729,175617
15.8786,177722
15.8843,174088
15.8901,179120
15.8958,177448
15.9015,180470
15.9072,181463
15.9129,183450
15.9187,184145
15.9244,180991
15.9301,179882
15.9358,184498
15.9416,183253
15.9473,182636
15.953,185416
15.9587,184084
15.9644,185071
15.9702,189236
15.9759,181743
15.9816,187875
15.9873,191409
15.9931,188981
15.9988,189983
16.0045,186690
16.0102,190297
16.0159,191425
16.0217,191802
16.0274,193540
16.0331,198211
16.0388,195305
16.0446,190196
16.0503,195969
16.056,196343
16.0617,200932
16.0674,201632
16.0731,204418
16.0789,210595
16.0846,230184
16.0903,264929
16.096,308778
16.1018,351638
16.1075,364047
16.1132,345609
16.1189,303052
16.1246,261564
16.1304,238933
16.1361,221701
16.1418,226154
16.1475,218555
16.1533,220609
16.159,212086
16.1647,211898
16.1704,215860
16.1762,214482
16.1819,218827
16.1876,222039
16.1933,219032
16.199,217657
16.2048,220426
16.2105,221509
16.2162,222860
16.2219,227019
16.2277,225009
16.2334,227509
16.2391,227216
16.2448,228322
16.2505,224016
16.2563,228532
16.262,225930
16.2677,228629
16.2734,237154
16.2792,235326
16.2849,232380
16.2906,232731
16.2963,233103
16.302,234376
16.3077,241979
16.3135,237680
16.3192,240366
16.3249,236910
16.3306,241081
16.3364,245125
16.3421,242460
16.3478,244703
16.3535,253778
16.3592,248985
16.365,251501
16.3707,250813
16.3764,251737
16.3821,253005
16.3879,249937
16.3936,252652
16.3993,253172
16.405,247907
16.4108,254332
16.4165,253190
16.4222,257178
16.4279,256646
16.4336,253952
16.4394,258577
16.4451,256771
16.4508,255568
16.4565,265376
16.4623,261730
16.468,263053
16.4737,259166
16.4794,263414
16.4851,263509
16.4908,265241
16.4966,266798
16.5023,266001
16.508,275289
16.5138,275234
16.5195,270399
16.5252,275821
16.5309,277861
16.5366,280728
16.5423,274676
16.5481,282835
16.5538,280854
16.5595,279357
16.5652,280035
16.571,292425
16.5767,282882
16.5824,289122
16.5881,277820
16.5939,281883
16.5996,284319
16.6053,286219
16.611,287367
16.6167,288800
16.6225,293309
16.6282,292152
16.6339,298106
16.6396,292989
16.6454,294522
16.6511,288527
16.6568,298775
16.6625,292099
16.6682,299244
16.674,303620
16.6797,298762
16.6854,304061
16.6911,307976
16.6969,309189
16.7026,312930
16.7083,304066
16.714,315265
16.7197,313821
16.7254,310285
16.7312,313119
16.7369,316490
16.7426,317235
16.7483,316933
16.7541,326205
16.7598,327240
16.7655,322135
16.7712,326630
16.7769,327525
16.7827,332559
16.7884,331688
16.7941,330892
16.7998,331818
16.8056,332600
16.8113,334751
16.817,338657
16.8227,338721
16.8285,335733
16.8342,338970
16.8399,351097
16.8456,374055
16.8513,406078
16.8571,440037
16.8628,466378
16.8685,481745
16.8742,459452
16.88,429208
16.8857,403284
16.8914,373087
16.8971,368058
16.9028,364725
16.9086,360521
16.9143,372040
16.92,362424
16.9257,368606
16.9315,371646
16.9372,369127
16.9429,364897
16.9486,372299
16.9543,375505
16.96,371977
16.9658,374305
16.9715,375079
16.9772,376348
16.9829,383217
16.9887,383065
16.9944,380121
17.0001,382039
17.0058,384800
17.0116,388296
17.0173,393064
17.023,393602
17.0287,389347
17.0345,397365
17.0402,396081
17.0459,389111
17.0516,400103
17.0573,400828
17.0631,396939
17.0688,398515
17.0745,403574
17.0802,400894
17.0859,409225
17.0917,404548
17.0974,409299
17.1031,414443
17.1088,406801
17.1146,415474
17.1203,411936
17.126,420697
17.1317,412201
17.1374,420923
17.1432,428773
17.1489,418790
17.1546,424958
17.1603,428670
17.166,437378
17.1718,428866
17.1775,434125
17.1832,428626
17.1889,429089
17.1946,432099
17.2004,436163
17.2061,436437
17.2118,438414
17.2175,439742
17.2233,450268
17.229,439784
17.2347,444411
17.2404,452524
17.2462,458375
17.2519,450270
17.2576,455486
17.2633,458251
17.2691,450514
17.2748,462606
17.2805,461946
17.2862,465720
17.2919,464334
17.2977,463958
17.3034,465054
17.3091,466861
17.3148,478278
17.3205,470815
17.3263,473810
17.332,477065
17.3377,482998
17.3434,477321
17.3492,491947
17.3549,486499
17.3606,490023
17.3663,491125
17.372,491199
17.3778,490114
17.3835,494177
17.3892,497915
17.3949,500063
17.4006,493861
17.4064,498446
17.4121,513917
17.4178,511933
17.4235,506808
17.4293,516480
17.435,519336
17.4407,518872
17.4464,513967
17.4522,513017
17.4579,520481
17.4636,524023
17.4693,514151
17.475,530003
17.4808,527759
17.4865,533119
17.4922,542380
17.4979,542096
17.5037,535598
17.5094,538350
17.5151,545116
17.5208,555861
17.5265,567272
17.5323,561255
17.538,570136
17.5437,576055
17.5494,588632
17.5552,588826
17.5609,611091
17.5666,640338
17.5723,682374
17.578,702383
17.5838,704237
17.5895,701139
17.5952,656261
17.6009,629582
17.6066,606996
17.6124,604735
17.6181,601260
17.6238,594051
17.6295,590567
17.6352,586353
17.641,581086
17.6467,598601
17.6524,598192
17.6581,585507
17.6639,593632
17.6696,590131
17.6753,587212
17.681,589478
17.6868,589331
17.6925,589525
17.6982,597959
17.7039,583584
17.7096,598115
17.7154,600669
17.7211,594512
17.7268,588243
17.7325,590767
17.7383,588792
17.744,591191
17.7497,589931
17.7554,593315
17.7611,595823
17.7669,596159
17.7726,595135
17.7783,596839
17.784,596889
17.7898,597205
17.7955,605035
17.8012,599316
17.8069,610094
17.8126,610857
17.8184,614963
17.8241,615025
17.8298,618646
17.8355,621199
17.8412,621749
17.847,621636
17.8527,619117
17.8584,627071
17.8641,623518
17.8699,634908
17.8756,629460
17.8813,624858
17.887,624613
17.8927,613641
17.8985,617675
17.9042,614415
17.9099,620230
17.9156,613578
17.9214,614444
17.9271,613087
17.9328,615156
17.9385,613492
17.9442,616423
17.95,618374
17.9557,616087
17.9614,619764
17.9671,611646
17.9729,627856
17.9786,622344
17.9843,621759
17.99,628858
17.9957,625834
18.0015,630359
18.0072,625932
18.0129,626106
18.0186,628836
18.0244,631027
18.0301,636393
18.0358,639527
18.0415,632658
18.0472,631225
18.0529,634865
18.0587,637500
18.0644,625119
18.0701,642270
18.0758,640992
18.0816,644459
18.0873,646050
18.093,649583
18.0987,644214
18.1045,644054
18.1102,640524
18.1159,653927
18.1216,650499
18.1273,657706
18.1331,657689
18.1388,648105
18.1445,649364
18.1502,653150
18.156,659088
18.1617,652434
18.1674,660433
18.1731,656303
18.1788,652756
18.1846,658656
18.1903,661647
18.196,658773
18.2017,657464
18.2075,653877
18.2132,661653
18.2189,662322
18.2246,660248
18.2303,661764
18.2361,652131
18.2418,661335
18.2475,660027
18.2532,656438
18.259,657194
18.2647,664947
18.2704,652964
18.2761,651486
18.2818,660397
18.2876,659696
18.2933,673425
18.299,683552
18.3047,690461
18.3104,693064
18.3162,712340
18.3219,714695
18.3276,721540
18.3333,693138
18.3391,690929
18.3448,680438
18.3505,670713
18.3562,668114
18.3619,655789
18.3677,657466
18.3734,666089
18.3791,656667
18.3848,654718
18.3906,660831
18.3963,659330
18.402,657608
18.4077,647989
18.4134,660453
18.4192,662348
18.4249,664512
18.4306,662540
18.4363,651659
18.4421,655739
18.4478,660714
18.4535,662818
18.4592,655940
18.4649,663870
18.4706,676952
18.4764,667356
18.4821,662775
18.4878,664331
18.4936,659884
18.4993,654723
18.505,666593
18.5107,662892
18.5164,654123
18.5222,657351
18.5279,668311
18.5336,649612
18.5393,658289
18.5451,658230
18.5508,669909
18.5565,672086
18.5622,675369
18.5679,664643
18.5737,671309
18.5794,672507
18.5851,673686
18.5908,666192
18.5965,671253
18.6023,671129
18.608,677557
18.6137,671229
18.6194,686724
18.6252,677732
18.6309,672639
18.6366,681269
18.6423,686170
18.648,682060
18.6538,682781
18.6595,689528
18.6652,688292
18.6709,692874
18.6767,687660
18.6824,685446
18.6881,687869
18.6938,695236
18.6995,694528
18.7052,703800
18.711,699189
18.7167,703492
18.7224,708683
18.7281,710761
18.7339,716037
18.7396,718236
18.7453,715635
18.751,724680
18.7568,717589
18.7625,718541
18.7682,722044
18.7739,718063
18.7797,710854
18.7854,711095
18.7911,713839
18.7968,707328
18.8025,701887
18.8083,701606
18.814,705136
18.8197,705545
18.8254,703422
18.8311,706508
18.8369,709735
18.8426,715165
18.8483,705466
18.854,704399
18.8598,706312
18.8655,702220
18.8712,704259
18.8769,704489
18.8826,715468
18.8884,709525
18.8941,708378
18.8998,708806
18.9055,701802
18.9113,705542
18.917,715103
18.9227,709117
18.9284,696009
18.9341,709755
18.9399,717734
18.9456,718885
18.9513,704776
18.957,712761
18.9628,717586
18.9685,713965
18.9742,722780
18.9799,723632
18.9856,725926
18.9914,720714
18.9971,717709
19.0028,729685
19.0085,723768
19.0143,729666
19.02,732467
19.0257,728900
19.0314,739824
19.0371,732089
19.0429,722997
19.0486,729209
19.0543,729912
19.06,732963
19.0658,732292
19.0715,728839
19.0772,727980
19.0829,737022
19.0886,737556
19.0944,726819
19.1001,724173
19.1058,731954
19.1115,725314
19.1172,731282
19.123,730794
19.1287,726397
19.1344,741803
19.1401,751387
19.1458,756872
19.1516,761968
19.1573,770285
19.163,764438
19.1687,770980
19.1745,763937
19.1802,753495
19.1859,752314
19.1916,750759
19.1974,741823
19.2031,737084
19.2088,745181
19.2145,730326
19.2202,741040
19.226,735062
19.2317,747697
19.2374,737947
19.2431,741806
19.2489,739647
19.2546,742812
19.2603,741050
19.266,731796
19.2717,724095
19.2775,747794
19.2832,734925
19.2889,734643
19.2946,740410
19.3004,728544
19.3061,729955
19.3118,729365
19.3175,730088
19.3232,732685
19.329,743688
19.3347,739968
19.3404,731472
19.3461,743649
19.3518,746476
19.3576,750835
19.3633,741375
19.369,754642
19.3747,746540
19.3805,744360
19.3862,742171
19.3919,755029
19.3976,746343
19.4033,740828
19.4091,742725
19.4148,739031
19.4205,730916
19.4262,737456
19.432,730756
19.4377,730494
19.4434,735161
19.4491,731016
19.4548,731236
19.4606,732508
19.4663,727616
19.472,728863
19.4777,721479
19.4835,725235
19.4892,727954
19.4949,727898
19.5006,729879
19.5063,720088
19.5121,717334
19.5178,730878
19.5235,719917
19.5292,723905
19.535,722490
19.5407,718830
19.5464,725379
19.5521,725449
19.5578,726926
19.5635,724203
19.5693,729309
19.575,720710
19.5807,724750
19.5864,717439
19.5922,729009
19.5979,726179
19.6036,723930
19.6093,717315
19.6151,728369
19.6208,716801
19.6265,710459
19.6322,712021
19.6379,714069
19.6437,719468
19.6494,722924
19.6551,717181
19.6608,717145
19.6666,719397
19.6723,711612
19.678,712692
19.6837,722350
19.6894,715432
19.6952,716150
19.7009,718555
19.7066,721385
19.7123,723675
19.7181,725101
19.7238,717619
19.7295,719021
19.7352,723015
19.7409,718015
19.7467,701928
19.7524,715303
19.7581,720196
19.7638,713645
19.7696,717645
19.7753,722894
19.781,727951
19.7867,732258
19.7924,736151
19.7982,726057
19.8039,736152
19.8096,737837
19.8153,730294
19.8211,730234
19.8268,726640
19.8325,722140
19.8382,729396
19.8439,732968
19.8497,742361
19.8554,728354
19.8611,734327
19.8668,722120
19.8725,735352
19.8783,737721
19.884,731787
19.8897,740050
19.8954,734315
19.9012,737158
19.9069,737492
19.9126,744186
19.9183,743945
19.924,736870
19.9298,730136
19.9355,737742
19.9412,743788
19.9469,742081
19.9527,739341
19.9584,743745
19.9641,748753
19.9698,747020
19.9755,730804
19.9812,747697
19.987,738037
19.9927,743114
19.9984,742830
20.0041,744870
20.0099,743162
20.0156,757443
20.0213,752304
20.027,746618
20.0328,741947
20.0385,754142
20.0442,750307
20.0499,759220
20.0557,755263
20.0614,754328
20.0671,755312
20.0728,756854
20.0785,757941
20.0843,753098
20.09,779559
20.0957,761706
20.1014,778069
20.1071,765079
20.1129,764216
20.1186,763487
20.1243,767144
20.13,767575
20.1358,773814
20.1415,778755
20.1472,787855
20.1529,785019
20.1586,784927
20.1644,777421
20.1701,768120
20.1758,787105
20.1815,779062
20.1873,777472
20.193,762974
20.1987,768250
20.2044,773754
20.2101,770844
20.2159,773013
20.2216,769734
20.2273,786461
20.233,787102
20.2388,781477
20.2445,800402
20.2502,808074
20.2559,810794
20.2616,815497
20.2674,823176
20.2731,830344
20.2788,841625
20.2845,835278
20.2903,845711
20.296,856007
20.3017,850287
20.3074,861817
20.3131,853445
20.3189,857567
20.3246,864328
20.3303,872209
20.336,880634
20.3418,885523
20.3475,894366
20.3532,905408
20.3589,904085
20.3646,905105
20.3704,905422
20.3761,915607
20.3818,911582
20.3875,939944
20.3932,943219
20.399,953370
20.4047,963497
20.4104,962058
20.4161,958171
20.4219,969592
20.4276,988942
20.4333,995468
20.439,995602
20.4447,1009340
20.4505,1016235
20.4562,1033637
20.4619,1030191
20.4676,1030450
20.4734,1030687
20.4791,1030133
20.4848,1032710
20.4905,1028947
