C:\MSDCHEM\1\DATA\SERINA\20170928 LACTONE_STD_CURVE\9.d 28 Sep 17   5:50 pm
Start of data points
5.09237,143824
5.09808,145773
5.1038,151339
5.10953,148867
5.11525,152901
5.12097,151474
5.1267,151412
5.13242,160809
5.13813,157550
5.14387,156889
5.14958,160454
5.1553,160788
5.16102,164392
5.16675,164102
5.17247,163139
5.17818,164756
5.18392,158592
5.18963,154311
5.19535,153523
5.20108,149145
5.2068,144003
5.21252,141259
5.21825,136851
5.22397,131427
5.22968,122407
5.23542,122134
5.24113,118577
5.24685,114929
5.25258,107780
5.2583,106866
5.26402,103562
5.26975,101402
5.27547,99902
5.28118,98102
5.2869,93100
5.29263,88919
5.29835,91708
5.30407,87995
5.3098,87123
5.31552,85787
5.32123,87331
5.32697,84745
5.33268,83865
5.3384,83466
5.34413,82477
5.34985,82143
5.35557,80281
5.3613,81483
5.36702,82174
5.37273,78203
5.37847,78704
5.38418,77611
5.3899,77343
5.39563,76754
5.40135,75234
5.40707,77644
5.41278,75843
5.41852,76722
5.42423,75926
5.42995,72761
5.43568,72775
5.4414,72982
5.44712,74117
5.45285,71200
5.45857,72103
5.46428,72910
5.47002,71669
5.47573,73587
5.48145,70771
5.48718,73034
5.4929,71440
5.49862,72068
5.50435,71751
5.51007,71761
5.51578,70375
5.52152,69661
5.52723,67933
5.53295,69212
5.53867,66303
5.5444,67286
5.55012,70459
5.55583,68558
5.56157,70545
5.56728,67769
5.573,68712
5.57873,66461
5.58445,65155
5.59017,65584
5.5959,64231
5.60162,64497
5.60733,65596
5.61307,65772
5.61878,66294
5.6245,65525
5.63023,65024
5.63595,62429
5.64167,65768
5.6474,63565
5.65312,63599
5.65883,63034
5.66455,62192
5.67028,62879
5.676,63844
5.68172,64101
5.68745,62635
5.69317,63698
5.69888,61721
5.70462,59774
5.71033,64581
5.71605,60075
5.72178,62684
5.7275,61828
5.73322,61035
5.73895,62103
5.74467,60125
5.75038,60737
5.75612,59630
5.76183,60964
5.76755,59991
5.77328,59152
5.779,61029
5.78472,57828
5.79043,60394
5.79617,58409
5.80188,60383
5.8076,59789
5.81333,58002
5.81905,60105
5.82477,58157
5.8305,58887
5.83622,63893
5.84193,59961
5.84767,59662
5.85338,60851
5.8591,59616
5.86483,62895
5.87055,58799
5.87627,57968
5.882,58520
5.88772,58442
5.89343,55925
5.89917,57517
5.90488,58230
5.9106,58535
5.91632,58096
5.92205,57079
5.92777,53305
5.93348,54288
5.93922,55850
5.94493,57258
5.95065,56499
5.95638,54097
5.9621,53826
5.96782,54949
5.97355,53457
5.97927,53413
5.98498,56301
5.99072,55070
5.99643,56851
6.00215,53332
6.00788,52997
6.0136,52532
6.01932,55283
6.02505,52738
6.03077,53299
6.03648,51852
6.0422,53483
6.04793,52813
6.05365,52870
6.05937,52244
6.0651,54134
6.07082,52843
6.07653,51675
6.08227,51529
6.08798,53940
6.0937,50730
6.09943,49156
6.10515,52523
6.11087,51335
6.1166,52300
6.12232,50127
6.12803,54811
6.13377,52748
6.13948,50834
6.1452,51413
6.15093,51372
6.15665,48328
6.16237,50388
6.16808,53871
6.17382,50544
6.17953,50864
6.18525,51931
6.19098,50042
6.1967,48521
6.20242,51635
6.20815,49821
6.21387,50330
6.21958,51489
6.22532,50754
6.23103,49507
6.23675,50022
6.24248,47956
6.2482,49984
6.25392,51453
6.25965,49682
6.26537,49312
6.27108,50089
6.27682,49424
6.28253,51389
6.28825,50890
6.29397,49806
6.2997,50283
6.30542,48910
6.31113,50948
6.31687,48693
6.32258,46084
6.3283,46414
6.33403,47531
6.33975,46452
6.34547,46005
6.3512,49681
6.35692,48806
6.36263,48946
6.36837,49821
6.37408,50434
6.3798,51277
6.38553,48685
6.39125,49365
6.39697,47374
6.4027,46989
6.40842,48340
6.41413,47842
6.41985,45167
6.42558,45447
6.4313,47767
6.43702,46710
6.44275,46822
6.44847,46774
6.45418,43469
6.45992,48167
6.46563,45262
6.47135,46742
6.47708,45453
6.4828,49219
6.48852,47452
6.49425,47905
6.49997,48649
6.50568,46214
6.51142,47914
6.51713,44542
6.52285,46084
6.52858,47111
6.5343,45441
6.54002,46563
6.54573,45543
6.55147,46290
6.55718,46315
6.5629,45040
6.56863,43985
6.57435,46605
6.58007,45698
6.5858,45210
6.59152,46390
6.59723,44596
6.60297,43432
6.60868,45604
6.6144,44716
6.62013,43863
6.62585,43876
6.63157,42859
6.6373,44020
6.64302,43900
6.64873,44734
6.65447,43796
6.66018,41695
6.6659,42860
6.67162,44690
6.67735,44468
6.68307,43396
6.68878,43963
6.69452,44425
6.70023,44804
6.70595,44990
6.71168,46933
6.7174,42984
6.72312,45314
6.72885,45247
6.73457,43591
6.74028,45066
6.74602,44413
6.75173,45459
6.75745,43184
6.76318,43732
6.7689,42588
6.77462,43358
6.78035,44095
6.78607,43515
6.79178,43602
6.7975,42499
6.80323,43375
6.80895,43556
6.81467,42218
6.8204,44087
6.82612,44469
6.83183,41730
6.83757,41497
6.84328,42371
6.849,42784
6.85473,41871
6.86045,42909
6.86617,42815
6.8719,42393
6.87762,41939
6.88333,42757
6.88907,40826
6.89478,42383
6.9005,46380
6.90623,42042
6.91195,41381
6.91767,40785
6.92338,42262
6.92912,43993
6.93483,43882
6.94055,40805
6.94628,39527
6.952,41346
6.95772,40204
6.96345,39676
6.96917,39389
6.97488,42476
6.98062,43162
6.98633,43477
6.99205,41924
6.99778,41013
7.0035,41460
7.00922,41046
7.01495,40458
7.02067,40441
7.02638,40445
7.03212,42471
7.03783,39586
7.04355,41543
7.04927,41001
7.055,40137
7.06072,40872
7.06643,39784
7.07217,41390
7.07788,41916
7.0836,41518
7.08933,42072
7.09505,42184
7.10077,41218
7.1065,39708
7.11222,39659
7.11793,39791
7.12367,42056
7.12938,41499
7.1351,41041
7.14083,40267
7.14655,40077
7.15227,39619
7.158,40086
7.16372,37863
7.16943,40125
7.17515,39719
7.18088,42535
7.1866,40404
7.19232,40044
7.19805,41374
7.20377,39369
7.20948,42955
7.21522,39941
7.22093,39861
7.22665,40796
7.23238,40874
7.2381,41147
7.24382,41357
7.24955,39648
7.25527,39473
7.26098,38953
7.26672,40255
7.27243,42152
7.27815,40318
7.28388,40020
7.2896,38766
7.29532,39077
7.30103,38491
7.30677,38118
7.31248,37804
7.3182,40565
7.32393,39649
7.32965,39675
7.33537,36801
7.3411,37306
7.34682,40338
7.35253,38983
7.35827,39612
7.36398,38983
7.3697,39938
7.37543,38992
7.38115,37860
7.38687,40053
7.3926,40296
7.39832,39171
7.40403,41082
7.40977,39399
7.41548,40178
7.4212,41602
7.42692,38249
7.43265,37476
7.43837,39060
7.44408,37102
7.44982,39102
7.45553,39112
7.46125,39681
7.46698,40599
7.4727,38713
7.47842,38086
7.48415,37671
7.48987,40626
7.49558,40877
7.50132,40211
7.50703,39282
7.51275,40128
7.51848,39694
7.5242,40878
7.52992,39812
7.53565,40921
7.54137,37364
7.54708,37912
7.55282,38213
7.55853,37338
7.56425,38416
7.56997,36355
7.5757,37595
7.58142,38445
7.58713,39077
7.59287,39316
7.59858,39912
7.6043,37818
7.61003,39736
7.61575,37607
7.62147,37708
7.6272,37367
7.63292,37244
7.63863,37416
7.64437,38116
7.65008,38612
7.6558,39729
7.66153,39340
7.66725,36092
7.67297,37335
7.6787,38688
7.68442,39776
7.69013,39862
7.69585,38518
7.70158,38092
7.7073,38798
7.71302,38406
7.71875,37658
7.72447,35825
7.73018,35990
7.73592,35981
7.74163,38315
7.74735,38195
7.75308,38896
7.7588,39786
7.76452,38941
7.77025,37107
7.77597,37676
7.78168,38084
7.78742,39362
7.79313,36332
7.79885,37562
7.80458,36354
7.8103,37652
7.81602,38172
7.82173,36156
7.82747,37012
7.83318,37496
7.8389,38465
7.84463,37884
7.85035,37245
7.85607,35261
7.8618,38250
7.86752,38572
7.87323,37680
7.87897,39662
7.88468,38690
7.8904,38927
7.89613,37647
7.90185,37486
7.90757,39059
7.9133,37800
7.91902,36671
7.92473,38161
7.93047,37469
7.93618,36996
7.9419,39645
7.94762,37725
7.95335,38574
7.95907,38235
7.96478,38864
7.97052,38089
7.97623,36908
7.98195,37599
7.98768,38739
7.9934,36378
7.99912,36724
8.00485,38070
8.01057,37004
8.01628,39630
8.02202,37486
8.02773,36842
8.03345,37728
8.03918,36832
8.0449,38316
8.05062,38044
8.05635,38359
8.06207,38015
8.06778,37905
8.0735,36318
8.07923,37409
8.08495,36816
8.09067,36159
8.0964,37876
8.10212,38410
8.10783,36339
8.11357,38152
8.11928,37204
8.125,38167
8.13073,37378
8.13645,38036
8.14217,37626
8.1479,39076
8.15362,38769
8.15933,37788
8.16507,38349
8.17078,36529
8.1765,34016
8.18223,35946
8.18795,35696
8.19367,36880
8.19938,35879
8.20512,38660
8.21083,36566
8.21655,37175
8.22228,37462
8.228,37970
8.23372,37898
8.23945,36821
8.24517,34213
8.25088,39681
8.25662,36209
8.26233,37375
8.26805,35325
8.27378,36837
8.2795,34073
8.28522,36406
8.29095,37681
8.29667,35283
8.30238,35785
8.30812,35706
8.31383,35980
8.31955,37429
8.32527,36873
8.331,37939
8.33672,36329
8.34243,37237
8.34817,39242
8.35388,35231
8.3596,37883
8.36533,35450
8.37105,37554
8.37677,37482
8.3825,38152
8.38822,36650
8.39393,37761
8.39967,37928
8.40538,36824
8.4111,37935
8.41683,36454
8.42255,35078
8.42827,37221
8.434,36280
8.43972,34945
8.44543,35516
8.45115,37982
8.45688,36511
8.4626,36840
8.46832,36115
8.47405,36131
8.47977,36042
8.48548,38330
8.49122,35778
8.49693,35111
8.50265,37361
8.50838,36820
8.5141,35961
8.51982,35472
8.52555,36738
8.53127,37920
8.53698,35218
8.54272,38367
8.54843,36820
8.55415,38038
8.55988,37045
8.5656,34470
8.57132,36953
8.57703,36362
8.58277,35868
8.58848,36488
8.5942,36234
8.59993,34297
8.60565,36382
8.61137,37169
8.6171,33541
8.62282,35687
8.62853,35485
8.63427,35330
8.63998,34304
8.6457,35577
8.65143,33977
8.65715,34786
8.66287,36874
8.6686,34003
8.67432,36710
8.68003,35012
8.68577,33968
8.69148,34383
8.6972,33738
8.70292,35538
8.70865,36713
8.71437,34955
8.72008,35960
8.72582,34708
8.73153,35313
8.73725,36700
8.74298,33802
8.7487,34883
8.75442,35239
8.76015,34252
8.76587,35768
8.77158,35044
8.77732,34983
8.78303,35620
8.78875,34957
8.79448,37040
8.8002,37716
8.80592,35117
8.81165,35882
8.81737,36199
8.82308,35984
8.8288,33626
8.83453,35203
8.84025,34572
8.84597,34135
8.8517,33497
8.85742,35817
8.86313,34767
8.86887,36644
8.87458,36515
8.8803,36088
8.88603,35967
8.89175,36050
8.89747,37439
8.9032,36476
8.90892,34820
8.91463,35590
8.92037,36419
8.92608,34541
8.9318,33872
8.93753,34544
8.94325,36501
8.94897,35424
8.95468,36212
8.96042,35939
8.96613,35305
8.97185,36436
8.97758,36656
8.9833,36359
8.98902,41164
8.99475,38764
9.00047,38004
9.00618,37114
9.01192,35869
9.01763,36552
9.02335,36060
9.02908,34822
9.0348,34283
9.04052,35998
9.04625,34853
9.05197,35424
9.05768,35929
9.06342,34487
9.06913,34190
9.07485,35201
9.08057,36818
9.0863,34089
9.09202,34497
9.09773,35894
9.10347,38026
9.10918,36142
9.1149,35456
9.12063,34825
9.12635,36866
9.13207,35956
9.1378,36526
9.14352,36284
9.14923,39491
9.15497,39029
9.16068,42659
9.1664,45063
9.17213,40647
9.17785,39689
9.18357,37394
9.1893,38199
9.19502,35884
9.20073,37065
9.20645,34783
9.21218,38717
9.2179,37630
9.22362,37197
9.22935,36852
9.23507,36036
9.24078,35758
9.24652,37688
9.25223,36872
9.25795,38490
9.26368,36277
9.2694,38590
9.27512,36999
9.28085,37865
9.28657,37602
9.29228,37767
9.29802,36137
9.30373,36241
9.30945,36579
9.31518,37270
9.3209,35000
9.32662,36031
9.33233,36819
9.33807,35945
9.34378,37852
9.3495,35842
9.35523,36878
9.36095,35739
9.36667,36143
9.3724,37729
9.37812,35575
9.38383,36884
9.38957,36525
9.39528,36668
9.401,38551
9.40673,36718
9.41245,37098
9.41817,36988
9.4239,36190
9.42962,36086
9.43533,34758
9.44107,37835
9.44678,38640
9.4525,39049
9.45822,35854
9.46395,36135
9.46967,36206
9.47538,37987
9.48112,35413
9.48683,34056
9.49255,35853
9.49828,37363
9.504,36956
9.50972,36432
9.51545,35202
9.52117,36888
9.52688,35459
9.53262,34975
9.53833,36848
9.54405,38061
9.54978,38680
9.5555,39236
9.56122,38716
9.56695,37668
9.57267,38449
9.57838,38249
9.5841,38075
9.58983,40790
9.59555,40830
9.60127,41039
9.607,39001
9.61272,40154
9.61843,38678
9.62417,39561
9.62988,40673
9.6356,38854
9.64133,37881
9.64705,39989
9.65277,39619
9.6585,38282
9.66422,40693
9.66993,39779
9.67567,38290
9.68138,40148
9.6871,40511
9.69283,38889
9.69855,39193
9.70427,41186
9.70998,46413
9.71572,54598
9.72143,62918
9.72715,68864
9.73288,66446
9.7386,62122
9.74432,63323
9.75005,63210
9.75577,67807
9.76148,66458
9.76722,69706
9.77293,70115
9.77865,66402
9.78438,65427
9.7901,63074
9.79582,61443
9.80155,56479
9.80727,58057
9.81298,55386
9.81872,55463
9.82443,53273
9.83015,51611
9.83587,50323
9.8416,50910
9.84732,48689
9.85303,49994
9.85877,50551
9.86448,45705
9.8702,47004
9.87593,48544
9.88165,46894
9.88737,46249
9.8931,46529
9.89882,44891
9.90453,44970
9.91027,44815
9.91598,43819
9.9217,42688
9.92743,44933
9.93315,44981
9.93887,46337
9.9446,44159
9.95032,42903
9.95603,43352
9.96175,45183
9.96748,43067
9.9732,43909
9.97892,43093
9.98465,43195
9.99037,45081
9.99608,47392
10.0018,43707
10.0075,44529
10.0133,45089
10.019,44938
10.0247,44408
10.0304,44703
10.0362,45403
10.0419,43598
10.0476,43757
10.0533,44643
10.059,42793
10.0648,43323
10.0705,44983
10.0762,43281
10.0819,44994
10.0876,41792
10.0934,42417
10.0991,42550
10.1048,44947
10.1105,44661
10.1163,43243
10.122,43219
10.1277,43187
10.1334,47050
10.1391,43173
10.1449,44241
10.1506,43485
10.1563,42114
10.162,43271
10.1678,42722
10.1735,44090
10.1792,42300
10.1849,40740
10.1906,41995
10.1964,43416
10.2021,44388
10.2078,44525
10.2135,41613
10.2193,42602
10.225,42644
10.2307,42205
10.2364,42001
10.2421,42741
10.2479,40631
10.2536,41866
10.2593,43393
10.265,43155
10.2708,41240
10.2765,41242
10.2822,41845
10.2879,42024
10.2936,41922
10.2994,42674
10.3051,42587
10.3108,41852
10.3165,43463
10.3223,43184
10.328,43755
10.3337,41978
10.3394,44077
10.3451,42355
10.3509,40296
10.3566,43116
10.3623,42149
10.368,42376
10.3737,41479
10.3795,42164
10.3852,41620
10.3909,42842
10.3966,42633
10.4024,41908
10.4081,41251
10.4138,42925
10.4195,40470
10.4252,43460
10.431,40688
10.4367,41322
10.4424,40423
10.4481,41485
10.4539,42088
10.4596,41512
10.4653,42328
10.471,42050
10.4767,40740
10.4825,44149
10.4882,42565
10.4939,40167
10.4996,42936
10.5054,41376
10.5111,41869
10.5168,40759
10.5225,42246
10.5282,41459
10.534,41689
10.5397,42931
10.5454,44170
10.5511,41686
10.5569,42159
10.5626,43562
10.5683,42852
10.574,42426
10.5797,42211
10.5855,41519
10.5912,43877
10.5969,42636
10.6026,43724
10.6083,43416
10.6141,44582
10.6198,44870
10.6255,49426
10.6312,47350
10.637,46802
10.6427,43001
10.6484,42750
10.6541,43237
10.6598,44679
10.6656,43452
10.6713,43639
10.677,41451
10.6827,41995
10.6885,42344
10.6942,41575
10.6999,41737
10.7056,42820
10.7113,43523
10.7171,43046
10.7228,44238
10.7285,41358
10.7342,42443
10.74,42218
10.7457,41334
10.7514,43724
10.7571,42160
10.7628,42088
10.7686,39918
10.7743,41423
10.78,38981
10.7857,39207
10.7915,40514
10.7972,40558
10.8029,39144
10.8086,36854
10.8143,40843
10.8201,38586
10.8258,38489
10.8315,41427
10.8372,39534
10.8429,39420
10.8487,38239
10.8544,39438
10.8601,36660
10.8658,37994
10.8716,36735
10.8773,38579
10.883,36863
10.8887,40476
10.8944,39726
10.9002,37017
10.9059,37488
10.9116,36351
10.9173,37338
10.9231,35845
10.9288,37953
10.9345,38157
10.9402,37285
10.9459,38840
10.9517,37807
10.9574,38440
10.9631,36719
10.9688,37933
10.9746,36533
10.9803,38652
10.986,38967
10.9917,38315
10.9974,36684
11.0032,38272
11.0089,38757
11.0146,38765
11.0203,39030
11.0261,39521
11.0318,39889
11.0375,38409
11.0432,39543
11.0489,38101
11.0547,39916
11.0604,41243
11.0661,44131
11.0718,46304
11.0776,49839
11.0833,52788
11.089,57668
11.0947,59585
11.1004,66623
11.1062,69492
11.1119,72593
11.1176,74493
11.1233,76194
11.129,73973
11.1348,76438
11.1405,71053
11.1462,76860
11.1519,73239
11.1577,69483
11.1634,69454
11.1691,64230
11.1748,65281
11.1805,65539
11.1863,61151
11.192,59026
11.1977,57785
11.2034,58547
11.2092,56175
11.2149,55529
11.2206,54394
11.2263,55338
11.232,54511
11.2378,53503
11.2435,53333
11.2492,53633
11.2549,54880
11.2607,51971
11.2664,53629
11.2721,52635
11.2778,54618
11.2835,57255
11.2893,52570
11.295,53014
11.3007,50998
11.3064,55352
11.3122,55647
11.3179,53394
11.3236,50870
11.3293,50952
11.335,47342
11.3408,46462
11.3465,46524
11.3522,47856
11.3579,45638
11.3636,46543
11.3694,47055
11.3751,46035
11.3808,45974
11.3865,41979
11.3923,44361
11.398,43055
11.4037,43107
11.4094,43031
11.4151,41625
11.4209,40782
11.4266,42211
11.4323,41082
11.438,39640
11.4438,42708
11.4495,42138
11.4552,40635
11.4609,39612
11.4666,38807
11.4724,40635
11.4781,41775
11.4838,40226
11.4895,39145
11.4953,40331
11.501,39888
11.5067,37875
11.5124,40458
11.5181,36816
11.5239,38115
11.5296,36748
11.5353,37442
11.541,38538
11.5468,35853
11.5525,38776
11.5582,38913
11.5639,37696
11.5696,37456
11.5754,37432
11.5811,38571
11.5868,38183
11.5925,38196
11.5982,35600
11.604,35505
11.6097,37943
11.6154,37581
11.6211,39258
11.6269,36017
11.6326,37724
11.6383,35820
11.644,34413
11.6497,37552
11.6555,36612
11.6612,37691
11.6669,37565
11.6726,35394
11.6784,37647
11.6841,36506
11.6898,36640
11.6955,37746
11.7012,37186
11.707,33187
11.7127,36920
11.7184,35443
11.7241,36484
11.7299,35809
11.7356,34643
11.7413,34194
11.747,35828
11.7527,35621
11.7585,34946
11.7642,34670
11.7699,35270
11.7756,36609
11.7814,36052
11.7871,36323
11.7928,36211
11.7985,36071
11.8042,35183
11.81,34634
11.8157,35749
11.8214,36399
11.8271,34901
11.8329,35859
11.8386,37381
11.8443,35935
11.85,35906
11.8557,36549
11.8615,35406
11.8672,34655
11.8729,34695
11.8786,36063
11.8843,37494
11.8901,38592
11.8958,38845
11.9015,37304
11.9072,39561
11.913,37515
11.9187,36450
11.9244,33720
11.9301,36196
11.9358,35216
11.9416,37084
11.9473,37898
11.953,35532
11.9587,34796
11.9645,36195
11.9702,35037
11.9759,33968
11.9816,32830
11.9873,36299
11.9931,35590
11.9988,36039
12.0045,33394
12.0102,34364
12.016,35266
12.0217,34067
12.0274,34886
12.0331,34124
12.0388,35445
12.0446,35437
12.0503,36400
12.056,33416
12.0617,33973
12.0675,32600
12.0732,34969
12.0789,33586
12.0846,33315
12.0903,34502
12.0961,35468
12.1018,36273
12.1075,34681
12.1132,35879
12.1189,37137
12.1247,33108
12.1304,35302
12.1361,33867
12.1418,34294
12.1476,33676
12.1533,34832
12.159,36261
12.1647,35991
12.1704,36904
12.1762,36139
12.1819,34447
12.1876,35987
12.1933,34185
12.1991,32876
12.2048,35259
12.2105,36769
12.2162,35086
12.2219,35122
12.2277,36804
12.2334,34580
12.2391,35636
12.2448,36735
12.2506,36653
12.2563,37605
12.262,36068
12.2677,36284
12.2734,33374
12.2792,33281
12.2849,35595
12.2906,35253
12.2963,34366
12.3021,35804
12.3078,34691
12.3135,32018
12.3192,35124
12.3249,35979
12.3307,34109
12.3364,33153
12.3421,37053
12.3478,35165
12.3536,35837
12.3593,35096
12.365,35526
12.3707,35286
12.3764,34433
12.3822,36130
12.3879,35987
12.3936,35898
12.3993,34486
12.405,34078
12.4108,35965
12.4165,36337
12.4222,33605
12.4279,34853
12.4337,35048
12.4394,33317
12.4451,37943
12.4508,33748
12.4565,33332
12.4623,37236
12.468,36076
12.4737,35860
12.4794,35581
12.4852,36572
12.4909,37316
12.4966,36471
12.5023,36183
12.508,35293
12.5138,34231
12.5195,34681
12.5252,34788
12.5309,36795
12.5367,35619
12.5424,35483
12.5481,35081
12.5538,35004
12.5595,36848
12.5653,36965
12.571,33054
12.5767,32975
12.5824,35509
12.5882,35261
12.5939,36641
12.5996,34561
12.6053,34320
12.611,36047
12.6168,36425
12.6225,33783
12.6282,36173
12.6339,36041
12.6396,34718
12.6454,36880
12.6511,36004
12.6568,35272
12.6625,37144
12.6683,35554
12.674,36801
12.6797,35621
12.6854,35280
12.6911,35653
12.6969,36876
12.7026,34680
12.7083,36634
12.714,36310
12.7198,34905
12.7255,36891
12.7312,34862
12.7369,36068
12.7426,38051
12.7484,37804
12.7541,38199
12.7598,37120
12.7655,37639
12.7713,35254
12.777,35077
12.7827,36603
12.7884,36860
12.7941,37120
12.7999,36874
12.8056,37495
12.8113,35641
12.817,38476
12.8228,38546
12.8285,37508
12.8342,37461
12.8399,41265
12.8456,41208
12.8514,41255
12.8571,38889
12.8628,41295
12.8685,38649
12.8742,38294
12.88,37441
12.8857,39335
12.8914,36035
12.8971,38186
12.9029,36110
12.9086,37415
12.9143,37373
12.92,37092
12.9257,36626
12.9315,36826
12.9372,36405
12.9429,35618
12.9486,37319
12.9544,37925
12.9601,37069
12.9658,39572
12.9715,38937
12.9772,36908
12.983,40865
12.9887,35904
12.9944,36817
13.0001,38235
13.0059,36433
13.0116,39924
13.0173,36733
13.023,37776
13.0287,40087
13.0345,40300
13.0402,39272
13.0459,39244
13.0516,41163
13.0574,37861
13.0631,40153
13.0688,39685
13.0745,39688
13.0802,39207
13.086,42063
13.0917,41271
13.0974,41615
13.1031,40535
13.1089,40295
13.1146,41473
13.1203,39793
13.126,41010
13.1317,40026
13.1375,41561
13.1432,39946
13.1489,41759
13.1546,39619
13.1603,41703
13.1661,41675
13.1718,42008
13.1775,42398
13.1832,44393
13.189,46690
13.1947,48220
13.2004,46877
13.2061,46710
13.2118,46262
13.2176,45678
13.2233,44938
13.229,45390
13.2347,42783
13.2405,42791
13.2462,41983
13.2519,43690
13.2576,43856
13.2633,42844
13.2691,42820
13.2748,44427
13.2805,44849
13.2862,44760
13.292,43356
13.2977,44962
13.3034,46488
13.3091,49094
13.3148,47341
13.3206,44899
13.3263,46452
13.332,48159
13.3377,46295
13.3435,45262
13.3492,50061
13.3549,50471
13.3606,47893
13.3663,49207
13.3721,49797
13.3778,49307
13.3835,49303
13.3892,50870
13.3949,49745
13.4007,50782
13.4064,51190
13.4121,51492
13.4178,50724
13.4236,50776
13.4293,52301
13.435,54132
13.4407,54226
13.4464,54139
13.4522,53004
13.4579,52062
13.4636,53484
13.4693,53517
13.4751,53611
13.4808,55587
13.4865,52793
13.4922,55471
13.4979,55191
13.5037,55411
13.5094,54036
13.5151,54340
13.5208,55155
13.5266,55305
13.5323,56923
13.538,54352
13.5437,57757
13.5494,55129
13.5552,54188
13.5609,54377
13.5666,55696
13.5723,54743
13.5781,57629
13.5838,57266
13.5895,58812
13.5952,59529
13.6009,57709
13.6067,59586
13.6124,58285
13.6181,58355
13.6238,56391
13.6295,60984
13.6353,57815
13.641,57387
13.6467,59885
13.6524,60333
13.6582,59934
13.6639,62163
13.6696,60945
13.6753,62260
13.681,63020
13.6868,63500
13.6925,63777
13.6982,63381
13.7039,63002
13.7097,63604
13.7154,65477
13.7211,62056
13.7268,63511
13.7325,65546
13.7383,61690
13.744,63735
13.7497,65581
13.7554,65233
13.7612,65648
13.7669,65309
13.7726,68460
13.7783,72392
13.784,73214
13.7898,75782
13.7955,74558
13.8012,73923
13.8069,72662
13.8127,73384
13.8184,73174
13.8241,73007
13.8298,71153
13.8355,72121
13.8413,72695
13.847,73946
13.8527,71045
13.8584,74562
13.8642,72990
13.8699,79766
13.8756,80925
13.8813,85432
13.887,83516
13.8928,84715
13.8985,87431
13.9042,86154
13.9099,84661
13.9156,83083
13.9214,84151
13.9271,85537
13.9328,79243
13.9385,81936
13.9443,81826
13.95,81117
13.9557,81891
13.9614,82912
13.9671,83428
13.9729,83977
13.9786,86154
13.9843,85542
13.99,88300
13.9958,89654
14.0015,87978
14.0072,87644
14.0129,87109
14.0186,86654
14.0244,88498
14.0301,89938
14.0358,91737
14.0415,92432
14.0473,88723
14.053,89628
14.0587,91285
14.0644,90307
14.0701,91353
14.0759,90158
14.0816,88395
14.0873,96331
14.093,97488
14.0988,101086
14.1045,104277
14.1102,105492
14.1159,104636
14.1216,105043
14.1274,100854
14.1331,101001
14.1388,101276
14.1445,98860
14.1502,102075
14.156,99311
14.1617,99173
14.1674,101185
14.1731,101983
14.1789,98808
14.1846,101645
14.1903,101963
14.196,101404
14.2017,100111
14.2075,105583
14.2132,104143
14.2189,104497
14.2246,101615
14.2304,105228
14.2361,101767
14.2418,105303
14.2475,106780
14.2532,104587
14.259,111037
14.2647,108249
14.2704,104284
14.2761,108098
14.2819,110078
14.2876,109608
14.2933,108607
14.299,107728
14.3047,111643
14.3105,112259
14.3162,113522
14.3219,112395
14.3276,107164
14.3334,116479
14.3391,115390
14.3448,113500
14.3505,112956
14.3562,112509
14.362,114210
14.3677,114054
14.3734,116961
14.3791,116673
14.3848,117773
14.3906,119040
14.3963,119532
14.402,123855
14.4077,116668
14.4135,119274
14.4192,124760
14.4249,121424
14.4306,121877
14.4363,121656
14.4421,123600
14.4478,128692
14.4535,122348
14.4592,121994
14.465,126782
14.4707,124260
14.4764,127643
14.4821,127065
14.4878,127414
14.4936,125474
14.4993,128631
14.505,126333
14.5107,130058
14.5165,132185
14.5222,132206
14.5279,134819
14.5336,130462
14.5393,136029
14.5451,134417
14.5508,134871
14.5565,138147
14.5622,141038
14.568,139034
14.5737,139345
14.5794,139506
14.5851,142868
14.5908,142728
14.5966,143796
14.6023,140691
14.608,141528
14.6137,142128
14.6195,141516
14.6252,139562
14.6309,141827
14.6366,146681
14.6423,145223
14.6481,143933
14.6538,148695
14.6595,150729
14.6652,147227
14.6709,147072
14.6767,150822
14.6824,146583
14.6881,152780
14.6938,153394
14.6996,150636
14.7053,155164
14.711,150834
14.7167,152433
14.7224,153333
14.7282,152678
14.7339,156283
14.7396,158285
14.7453,155630
14.7511,155613
14.7568,156167
14.7625,153703
14.7682,160874
14.7739,157731
14.7797,162644
14.7854,164831
14.7911,161365
14.7968,161678
14.8026,160428
14.8083,161112
14.814,161362
14.8197,164122
14.8254,165218
14.8312,169755
14.8369,169219
14.8426,174326
14.8483,170315
14.8541,175211
14.8598,176532
14.8655,173703
14.8712,177001
14.8769,175045
14.8827,173153
14.8884,179298
14.8941,181813
14.8998,180346
14.9055,181809
14.9113,179654
14.917,179568
14.9227,178339
14.9284,180047
14.9342,180026
14.9399,181913
14.9456,183685
14.9513,177891
14.957,183490
14.9628,187650
14.9685,189840
14.9742,186009
14.9799,190838
14.9857,185286
14.9914,192411
14.9971,190664
15.0028,191497
15.0085,193085
15.0143,197043
15.02,190799
15.0257,195233
15.0314,191004
15.0372,197453
15.0429,198730
15.0486,200438
15.0543,204472
15.06,204494
15.0658,201994
15.0715,206343
15.0772,205122
15.0829,207425
15.0887,209808
15.0944,207817
15.1001,208672
15.1058,209214
15.1115,211028
15.1173,208481
15.123,210432
15.1287,212008
15.1344,211948
15.1401,212261
15.1459,219670
15.1516,216608
15.1573,218891
15.163,218837
15.1688,222414
15.1745,223612
15.1802,224610
15.1859,222295
15.1916,221416
15.1974,220660
15.2031,225910
15.2088,227050
15.2145,227541
15.2203,232577
15.226,230663
15.2317,232967
15.2374,236404
15.2431,236331
15.2489,237913
15.2546,235892
15.2603,238221
15.266,242320
15.2718,238612
15.2775,243339
15.2832,253005
15.2889,260280
15.2946,266130
15.3004,263374
15.3061,263120
15.3118,251923
15.3175,255168
15.3233,251188
15.329,253272
15.3347,250166
15.3404,252760
15.3461,249058
15.3519,254428
15.3576,258036
15.3633,259732
15.369,265805
15.3748,263844
15.3805,262204
15.3862,262160
15.3919,267238
15.3976,261375
15.4034,266225
15.4091,267875
15.4148,267221
15.4205,269550
15.4262,266346
15.432,272275
15.4377,274062
15.4434,274659
15.4491,272881
15.4549,278380
15.4606,278549
15.4663,280332
15.472,274730
15.4777,274010
15.4835,275276
15.4892,283311
15.4949,275848
15.5006,275647
15.5064,282078
15.5121,283718
15.5178,283871
15.5235,284618
15.5292,286990
15.535,290310
15.5407,292432
15.5464,288608
15.5521,295700
15.5579,296253
15.5636,297325
15.5693,295124
15.575,295696
15.5807,297294
15.5865,298893
15.5922,301285
15.5979,302581
15.6036,301920
15.6094,307734
15.6151,310257
15.6208,308777
15.6265,307449
15.6322,307989
15.638,301020
15.6437,309377
15.6494,311174
15.6551,311590
15.6608,314441
15.6666,311502
15.6723,315278
15.678,309684
15.6837,311290
15.6895,312233
15.6952,314755
15.7009,327695
15.7066,317825
15.7123,326950
15.7181,327178
15.7238,326011
15.7295,328811
15.7352,324036
15.741,332549
15.7467,327943
15.7524,329602
15.7581,327512
15.7638,325797
15.7696,332481
15.7753,333091
15.781,333781
15.7867,338284
15.7925,334364
15.7982,338218
15.8039,343277
15.8096,343995
15.8153,347050
15.8211,342370
15.8268,342498
15.8325,345511
15.8382,354348
15.844,350552
15.8497,350167
15.8554,350933
15.8611,348669
15.8668,346942
15.8726,354058
15.8783,354723
15.884,355992
15.8897,359520
15.8954,354919
15.9012,357855
15.9069,359142
15.9126,361299
15.9183,358361
15.9241,366550
15.9298,368272
15.9355,367747
15.9412,365078
15.9469,370905
15.9527,371195
15.9584,376252
15.9641,376634
15.9698,384221
15.9756,383629
15.9813,386546
15.987,380502
15.9927,385180
15.9984,392036
16.0042,392501
16.0099,395864
16.0156,396930
16.0213,396588
16.027,400889
16.0328,412741
16.0385,401597
16.0442,403630
16.0499,406710
16.0557,411511
16.0614,412563
16.0671,404748
16.0728,409831
16.0786,406377
16.0843,416066
16.09,415712
16.0957,429913
16.1014,420078
16.1072,416678
16.1129,420571
16.1186,423157
16.1243,432283
16.1301,424387
16.1358,431923
16.1415,435827
16.1472,433683
16.1529,433763
16.1587,441614
16.1644,434313
16.1701,437758
16.1758,442465
16.1815,441063
16.1873,433664
16.193,437371
16.1987,437941
16.2044,435220
16.2101,444091
16.2159,439143
16.2216,448440
16.2273,449378
16.233,446466
16.2388,450317
16.2445,455720
16.2502,453113
16.2559,465943
16.2616,457764
16.2674,450156
16.2731,461587
16.2788,456701
16.2845,465525
16.2903,464729
16.296,466210
16.3017,463031
16.3074,466746
16.3132,469100
16.3189,475358
16.3246,470381
16.3303,476848
16.336,477462
16.3418,481605
16.3475,478532
16.3532,475793
16.3589,479168
16.3647,482038
16.3704,486228
16.3761,483623
16.3818,489611
16.3875,495003
16.3932,502486
16.399,517512
16.4047,510770
16.4104,511376
16.4161,506493
16.4219,510763
16.4276,520935
16.4333,516098
16.439,509616
16.4447,512741
16.4505,513100
16.4562,520029
16.4619,513952
16.4676,508106
16.4734,515643
16.4791,525784
16.4848,531493
16.4905,535684
16.4963,533363
16.502,543718
16.5077,540022
16.5134,557432
16.5191,558122
16.5249,554978
16.5306,562174
16.5363,565261
16.542,563918
16.5478,565419
16.5535,559910
16.5592,571080
16.5649,564143
16.5706,561513
16.5764,575807
16.5821,566558
16.5878,568301
16.5935,573668
16.5993,580940
16.605,573409
16.6107,582207
16.6164,582531
16.6221,586553
16.6278,601445
16.6336,583441
16.6393,587215
16.645,583499
16.6507,583943
16.6565,591062
16.6622,586883
16.6679,581466
16.6736,587479
16.6793,595575
16.6851,604674
16.6908,599597
16.6965,603021
16.7022,602636
16.708,611456
16.7137,608567
16.7194,614779
16.7251,617738
16.7309,613973
16.7366,629379
16.7423,621122
16.748,620005
16.7537,632093
16.7595,637401
16.7652,632911
16.7709,637107
16.7766,642835
16.7824,647348
16.7881,663307
16.7938,656292
16.7995,667645
16.8052,662444
16.8109,664998
16.8167,667858
16.8224,670209
16.8281,672146
16.8339,669786
16.8396,676619
16.8453,684165
16.851,685019
16.8567,681506
16.8624,690472
16.8682,691643
16.8739,696241
16.8796,696438
16.8853,698105
16.8911,701339
16.8968,707115
16.9025,715583
16.9082,709991
16.914,715280
16.9197,724264
16.9254,722750
16.9311,728327
16.9368,716265
16.9426,728876
16.9483,725844
16.954,738766
16.9597,743019
16.9655,742940
16.9712,748100
16.9769,750878
16.9826,758211
16.9883,755686
16.9941,756457
16.9998,762727
17.0055,753563
17.0112,770933
17.017,762985
17.0227,765130
17.0284,775160
17.0341,787937
17.0398,781841
17.0455,784648
17.0513,790325
17.057,789730
17.0627,802998
17.0684,795380
17.0742,799151
17.0799,813064
17.0856,808787
17.0913,804930
17.097,796596
17.1028,800180
17.1085,796688
17.1142,805718
17.1199,802704
17.1257,806133
17.1314,801092
17.1371,809295
17.1428,817663
17.1486,835992
17.1543,823515
17.16,834171
17.1657,825822
17.1714,836906
17.1772,838008
17.1829,825126
17.1886,836370
17.1943,840614
17.2001,847937
17.2058,844524
17.2115,849611
17.2172,846154
17.2229,848049
17.2287,854973
17.2344,852375
17.2401,866934
17.2458,875315
17.2516,869896
17.2573,862436
17.263,865149
17.2687,867924
17.2744,874729
17.2802,878645
17.2859,887639
17.2916,898363
17.2973,886319
17.303,899547
17.3088,899943
17.3145,904323
17.3202,899217
17.3259,912438
17.3317,905873
17.3374,910623
17.3431,917829
17.3488,924156
17.3546,929913
17.3603,929197
17.366,943767
17.3717,937068
17.3774,944060
17.3832,930811
17.3889,925320
17.3946,924494
17.4003,942314
17.4061,945757
17.4118,933582
17.4175,945261
17.4232,961977
17.4289,962222
17.4347,972124
17.4404,990703
17.4461,975138
17.4518,976070
17.4575,976442
17.4633,961870
17.469,967872
17.4747,980617
17.4804,985083
17.4862,976321
17.4919,985775
17.4976,986654
17.5033,986864
17.509,989821
17.5148,1008213
17.5205,1008569
17.5262,1000805
17.5319,1013633
17.5376,1007534
17.5434,1024607
17.5491,1031292
17.5548,1018848
17.5605,1032639
17.5663,1037500
17.572,1048880
17.5777,1043517
17.5834,1041410
17.5892,1048765
17.5949,1054602
17.6006,1051317
17.6063,1061291
17.612,1068426
17.6178,1062109
17.6235,1070376
17.6292,1067857
17.6349,1073459
17.6407,1076987
17.6464,1079871
17.6521,1082359
17.6578,1078494
17.6635,1064037
17.6693,1052405
17.675,1065801
17.6807,1075578
17.6864,1077819
17.6921,1068262
17.6979,1048705
17.7036,1059067
17.7093,1047933
17.715,1061409
17.7208,1052545
17.7265,1054937
17.7322,1052910
17.7379,1052336
17.7436,1054492
17.7494,1055649
17.7551,1054637
17.7608,1060323
17.7665,1063230
17.7723,1048679
17.778,1055536
17.7837,1074893
17.7894,1072768
17.7951,1074185
17.8009,1074286
17.8066,1073118
17.8123,1058267
17.818,1050393
17.8238,1066151
17.8295,1058226
17.8352,1068699
17.8409,1072226
17.8466,1054470
17.8524,1048511
17.8581,1048410
17.8638,1048814
17.8695,1050082
17.8753,1058717
17.881,1062002
17.8867,1050311
17.8924,1056098
17.8981,1044525
17.9039,1039202
17.9096,1057127
17.9153,1041202
17.921,1016045
17.9267,1040560
17.9325,1039832
17.9382,1030620
17.9439,1045747
17.9496,1048428
17.9553,1053353
17.9611,1045324
17.9668,1040709
17.9725,1044924
17.9782,1044094
17.984,1045245
17.9897,1039533
17.9954,1036094
18.0011,1041672
18.0069,1039687
18.0126,1042096
18.0183,1058727
18.024,1043245
18.0297,1045611
18.0355,1043256
18.0412,1028738
18.0469,1025696
18.0526,1035598
18.0584,1033899
18.0641,1028443
18.0698,1023863
18.0755,1025926
18.0812,1022872
18.087,1033312
18.0927,1031669
18.0984,1044705
18.1041,1027128
18.1099,1031949
18.1156,1028520
18.1213,1023058
18.127,1017411
18.1327,1024768
18.1385,1024192
18.1442,1026079
18.1499,1029394
18.1556,1027822
18.1614,1017607
18.1671,1016153
18.1728,1014775
18.1785,1010298
18.1842,1008607
18.19,1020208
18.1957,1015033
18.2014,1004139
18.2071,999524
18.2128,1009628
18.2186,1005997
18.2243,997571
18.23,992309
18.2357,994674
18.2415,991818
18.2472,990393
18.2529,997224
18.2586,1000845
18.2643,999587
18.2701,995177
18.2758,1002240
18.2815,1005724
18.2872,999138
18.293,1001029
18.2987,998337
18.3044,998523
18.3101,1003238
18.3158,1004100
18.3216,997669
18.3273,998959
18.333,983006
18.3387,979218
18.3445,985206
18.3502,985986
18.3559,984127
18.3616,989064
18.3673,995073
18.373,989575
18.3788,988377
18.3845,982364
18.3902,971270
18.3959,971189
18.4017,968142
18.4074,968204
18.4131,972598
18.4188,977610
18.4246,961174
18.4303,958567
18.436,972276
18.4417,963211
18.4474,966087
18.4532,979289
18.4589,977220
18.4646,972051
18.4703,992422
18.4761,990737
18.4818,987905
18.4875,984169
18.4932,987072
18.4989,1002243
18.5047,1008139
18.5104,1005046
18.5161,1000267
18.5218,987951
18.5276,1001242
18.5333,998045
18.539,994646
18.5447,985310
18.5504,1003494
18.5562,997308
18.5619,1002671
18.5676,991247
18.5733,994539
18.5791,1005296
18.5848,1007740
18.5905,991542
18.5962,1002108
18.6019,1011437
18.6077,1007028
18.6134,1002203
18.6191,991880
18.6248,985911
18.6305,993387
18.6363,978586
18.642,989314
18.6477,990505
18.6534,978799
18.6592,998216
18.6649,993551
18.6706,999234
18.6763,992492
18.682,997629
18.6878,1005907
18.6935,1008381
18.6992,1003643
18.7049,1018218
18.7107,1005165
18.7164,999631
18.7221,1005491
18.7278,1007390
18.7335,1021482
18.7393,1021347
18.745,1017561
18.7507,1002190
18.7564,1013327
18.7622,1012293
18.7679,1018082
18.7736,1019203
18.7793,1020980
18.785,1026528
18.7908,1000104
18.7965,1020122
18.8022,1021114
18.8079,1030436
18.8137,1027464
18.8194,1029967
18.8251,1017761
18.8308,1032345
18.8365,1040045
18.8423,1042916
18.848,1038719
18.8537,1040988
18.8594,1049009
18.8652,1043816
18.8709,1051665
18.8766,1047127
18.8823,1058044
18.888,1054997
18.8938,1051348
18.8995,1048376
18.9052,1038008
18.9109,1047228
18.9167,1048351
18.9224,1044692
18.9281,1066842
18.9338,1058095
18.9395,1067958
18.9453,1058712
18.951,1057690
18.9567,1047890
18.9624,1053143
18.9681,1049606
18.9739,1052271
18.9796,1057288
18.9853,1065091
18.991,1068718
18.9968,1084572
19.0025,1083308
19.0082,1067145
19.0139,1064943
19.0196,1072164
19.0254,1076427
19.0311,1072805
19.0368,1073992
19.0425,1079942
19.0482,1080658
19.054,1083742
19.0597,1084934
19.0654,1076282
19.0711,1088492
19.0769,1080251
19.0826,1078686
19.0883,1082800
19.094,1087760
19.0998,1084402
19.1055,1077836
19.1112,1076702
19.1169,1090553
19.1226,1079718
19.1284,1087622
19.1341,1085738
19.1398,1085926
19.1455,1081544
19.1513,1078870
19.157,1068947
19.1627,1066190
19.1684,1089987
19.1741,1075386
19.1799,1084694
19.1856,1088512
19.1913,1081917
19.197,1081767
19.2027,1089048
19.2085,1095164
19.2142,1077383
19.2199,1086848
19.2256,1097610
19.2314,1095286
19.2371,1084632
19.2428,1087654
19.2485,1096709
19.2542,1098677
19.26,1101234
19.2657,1097997
19.2714,1094728
19.2771,1096654
19.2829,1101438
19.2886,1096801
19.2943,1096753
19.3,1083771
19.3057,1086797
19.3115,1097155
19.3172,1091671
19.3229,1087525
19.3286,1086931
19.3344,1091840
19.3401,1099563
19.3458,1093381
19.3515,1093245
19.3572,1103318
19.363,1104709
19.3687,1106891
19.3744,1095719
19.3801,1099260
19.3859,1089985
19.3916,1098045
19.3973,1104672
19.403,1102731
19.4087,1105908
19.4145,1104461
19.4202,1097383
19.4259,1101570
19.4316,1089009
19.4373,1109717
19.4431,1104772
19.4488,1094371
19.4545,1100526
19.4602,1108119
19.4659,1120900
19.4717,1099804
19.4774,1097691
19.4831,1095998
19.4888,1117762
19.4946,1105093
19.5003,1098572
19.506,1107159
19.5117,1097958
19.5175,1097535
19.5232,1079509
19.5289,1081667
19.5346,1100661
19.5403,1110984
19.5461,1102838
19.5518,1109408
19.5575,1103976
19.5632,1109233
19.569,1111727
19.5747,1103897
19.5804,1097548
19.5861,1093130
19.5918,1084923
19.5976,1098408
19.6033,1097429
19.609,1093210
19.6147,1102550
19.6205,1110864
19.6262,1109840
19.6319,1098121
19.6376,1092248
19.6433,1082700
19.6491,1089094
19.6548,1097867
19.6605,1099862
19.6662,1113791
19.672,1109540
19.6777,1125008
19.6834,1122137
19.6891,1130649
19.6948,1131457
19.7006,1121482
19.7063,1107001
19.712,1088078
19.7177,1109831
19.7234,1127169
19.7292,1118689
19.7349,1114686
19.7406,1126606
19.7463,1105437
19.7521,1110168
19.7578,1116679
19.7635,1113644
19.7692,1118055
19.7749,1118608
19.7807,1132798
19.7864,1124008
19.7921,1122224
19.7978,1130638
19.8036,1138585
19.8093,1149208
19.815,1132040
19.8207,1156483
19.8264,1158106
19.8322,1144990
19.8379,1151188
19.8436,1143949
19.8493,1141890
19.8551,1156088
19.8608,1129356
19.8665,1136501
19.8722,1143637
19.8779,1136816
19.8836,1137769
19.8894,1126480
19.8951,1136659
19.9008,1136859
19.9065,1133960
19.9123,1137502
19.918,1139255
19.9237,1133275
19.9294,1137149
19.9352,1140956
19.9409,1129257
19.9466,1135372
19.9523,1133440
19.958,1137220
19.9638,1131749
19.9695,1134148
19.9752,1120725
19.9809,1113147
19.9867,1109702
19.9924,1109942
19.9981,1105609
20.0038,1109387
20.0095,1115782
20.0153,1106603
20.021,1111207
20.0267,1115359
20.0324,1098399
20.0382,1102919
20.0439,1098441
20.0496,1093060
20.0553,1084446
20.061,1092528
20.0668,1093388
20.0725,1095755
20.0782,1089573
20.0839,1093158
20.0897,1108935
20.0954,1104766
20.1011,1088525
20.1068,1094068
20.1125,1084819
20.1183,1072516
20.124,1078861
20.1297,1080990
20.1354,1079735
20.1412,1082646
20.1469,1088318
20.1526,1079795
20.1583,1076311
20.164,1074270
20.1698,1085036
20.1755,1075034
20.1812,1074244
20.1869,1068040
20.1926,1065435
20.1984,1063648
20.2041,1071589
20.2098,1073242
20.2155,1076195
20.2213,1086802
20.227,1071446
20.2327,1067753
20.2384,1062869
20.2441,1065335
20.2499,1060717
20.2556,1060989
20.2613,1053716
20.267,1055399
20.2728,1050726
20.2785,1055863
20.2842,1052160
20.2899,1053321
20.2956,1040435
20.3014,1051343
20.3071,1042309
20.3128,1051082
20.3185,1036603
20.3242,1045453
20.33,1045090
20.3357,1045852
20.3414,1045926
20.3471,1037265
20.3529,1028686
20.3586,1037284
20.3643,1048271
20.37,1040028
20.3758,1031516
20.3815,1024868
20.3872,1027479
20.3929,1013479
20.3986,1010886
20.4044,1012032
20.4101,1012905
20.4158,1003576
20.4215,1005406
20.4273,996959
20.433,998503
20.4387,1003155
20.4444,993208
20.4501,986775
20.4559,990491
20.4616,989181
20.4673,995779
20.473,987476
20.4787,987786
20.4845,997210
20.4902,992528
