C:\MSDCHEM\1\DATA\SERINA\20170928 LACTONE_STD_CURVE\6.d 28 Sep 17   4:41 pm
Start of data points
5.09255,99819
5.09827,103370
5.104,99832
5.10972,101176
5.11543,101665
5.12115,101647
5.12688,102364
5.1326,99989
5.13832,105152
5.14405,106056
5.14977,106292
5.15548,109706
5.16122,108015
5.16693,105504
5.17265,107236
5.17838,106442
5.1841,104677
5.18982,103173
5.19555,105778
5.20127,100348
5.20698,96832
5.21272,92227
5.21843,92317
5.22415,89042
5.22988,89619
5.2356,84076
5.24132,81129
5.24703,82156
5.25277,77282
5.25848,77281
5.2642,74246
5.26993,73187
5.27565,72296
5.28137,68369
5.2871,65457
5.29282,66841
5.29853,63931
5.30427,62556
5.30998,61079
5.3157,61638
5.32143,58744
5.32715,60467
5.33287,59734
5.3386,60379
5.34432,58867
5.35003,57889
5.35577,57292
5.36148,56778
5.3672,56396
5.37292,56510
5.37865,55893
5.38437,54889
5.39008,54153
5.39582,54533
5.40153,56480
5.40725,54525
5.41298,52421
5.4187,54915
5.42442,53174
5.43015,53574
5.43587,52488
5.44158,51755
5.44732,53272
5.45303,51416
5.45875,51201
5.46448,53405
5.4702,51735
5.47592,52549
5.48165,52305
5.48737,50672
5.49308,51918
5.4988,53368
5.50453,49660
5.51025,50173
5.51597,51097
5.5217,51205
5.52742,49607
5.53313,49673
5.53887,47539
5.54458,46924
5.5503,47379
5.55603,48577
5.56175,49963
5.56747,48664
5.5732,48476
5.57892,50068
5.58463,47404
5.59037,46118
5.59608,49392
5.6018,45269
5.60753,48082
5.61325,47602
5.61897,47560
5.62468,48228
5.63042,46052
5.63613,46795
5.64185,46734
5.64758,43846
5.6533,45532
5.65902,48127
5.66475,46056
5.67047,47513
5.67618,46216
5.68192,46535
5.68763,46253
5.69335,47347
5.69908,46498
5.7048,44155
5.71052,45085
5.71625,45209
5.72197,43602
5.72768,43334
5.73342,45207
5.73913,45096
5.74485,43895
5.75057,42195
5.7563,43640
5.76202,45262
5.76773,43281
5.77347,42743
5.77918,42632
5.7849,42735
5.79063,43199
5.79635,43790
5.80207,45143
5.8078,43702
5.81352,43543
5.81923,42698
5.82497,44395
5.83068,44368
5.8364,45826
5.84213,44718
5.84785,43937
5.85357,46144
5.8593,44944
5.86502,43822
5.87073,45348
5.87645,42546
5.88218,42704
5.8879,43191
5.89362,40807
5.89935,41890
5.90507,43483
5.91078,40469
5.91652,41404
5.92223,43152
5.92795,40091
5.93368,41216
5.9394,42258
5.94512,41320
5.95085,41822
5.95657,40852
5.96228,40246
5.96802,40721
5.97373,41594
5.97945,40300
5.98518,40937
5.9909,40363
5.99662,38781
6.00233,40394
6.00807,40004
6.01378,38993
6.0195,38752
6.02523,37851
6.03095,38325
6.03667,40143
6.0424,40075
6.04812,37925
6.05383,37371
6.05957,36843
6.06528,38370
6.071,41382
6.07673,40357
6.08245,38542
6.08817,40454
6.0939,40868
6.09962,40153
6.10533,37466
6.11107,38695
6.11678,39783
6.1225,37635
6.12823,38124
6.13395,39216
6.13967,36686
6.14538,36724
6.15112,36260
6.15683,36944
6.16255,37294
6.16828,36827
6.174,38062
6.17972,37598
6.18545,36592
6.19117,37347
6.19688,37724
6.20262,36644
6.20833,36626
6.21405,37198
6.21978,36114
6.2255,35093
6.23122,36401
6.23695,37072
6.24267,37542
6.24838,37328
6.25412,36925
6.25983,34652
6.26555,35401
6.27127,37051
6.277,36849
6.28272,37202
6.28843,35898
6.29417,35686
6.29988,36827
6.3056,37108
6.31133,36611
6.31705,36518
6.32277,35868
6.3285,36068
6.33422,35344
6.33993,34579
6.34567,36313
6.35138,35022
6.3571,37393
6.36283,35242
6.36855,35806
6.37427,33723
6.38,34677
6.38572,35277
6.39143,35940
6.39715,35823
6.40288,34166
6.4086,35618
6.41432,32793
6.42005,35572
6.42577,35281
6.43148,35474
6.43722,35250
6.44293,35750
6.44865,37239
6.45438,34611
6.4601,33833
6.46582,34983
6.47155,34754
6.47727,37352
6.48298,34554
6.48872,34687
6.49443,34860
6.50015,34384
6.50588,34685
6.5116,33951
6.51732,33981
6.52303,35746
6.52877,34224
6.53448,35926
6.5402,35251
6.54593,34362
6.55165,34299
6.55737,31364
6.5631,34620
6.56882,35165
6.57453,34427
6.58027,33663
6.58598,32888
6.5917,33218
6.59743,35059
6.60315,34557
6.60887,33745
6.6146,34733
6.62032,35784
6.62603,33121
6.63177,32562
6.63748,34833
6.6432,34272
6.64892,35088
6.65465,33303
6.66037,34515
6.66608,32990
6.67182,34411
6.67753,35436
6.68325,32681
6.68898,31736
6.6947,34433
6.70042,36269
6.70615,33560
6.71187,32162
6.71758,34756
6.72332,31674
6.72903,33877
6.73475,33255
6.74048,33831
6.7462,33606
6.75192,32307
6.75765,34085
6.76337,33636
6.76908,32186
6.7748,32987
6.78053,31433
6.78625,32315
6.79197,32090
6.7977,33776
6.80342,33030
6.80913,32972
6.81487,32483
6.82058,34933
6.8263,30597
6.83203,31990
6.83775,33331
6.84347,31042
6.8492,32508
6.85492,31995
6.86063,35007
6.86637,33735
6.87208,34543
6.8778,33362
6.88353,31889
6.88925,29270
6.89497,34833
6.90068,31374
6.90642,33253
6.91213,32901
6.91785,33189
6.92358,31420
6.9293,30322
6.93502,32962
6.94075,30976
6.94647,33312
6.95218,32546
6.95792,32083
6.96363,32425
6.96935,34295
6.97508,29891
6.9808,31591
6.98652,30893
6.99225,31186
6.99797,32392
7.00368,32265
7.00942,31057
7.01513,31277
7.02085,31803
7.02657,32153
7.0323,33376
7.03802,31683
7.04373,31343
7.04947,32391
7.05518,30491
7.0609,32212
7.06663,31217
7.07235,31830
7.07807,32257
7.0838,31266
7.08952,31438
7.09523,33838
7.10097,32463
7.10668,31833
7.1124,30891
7.11813,30835
7.12385,29578
7.12957,32160
7.1353,30493
7.14102,31724
7.14673,32696
7.15245,32594
7.15818,30705
7.1639,31293
7.16962,30705
7.17535,34230
7.18107,30752
7.18678,30454
7.19252,31452
7.19823,30679
7.20395,30458
7.20968,32441
7.2154,31010
7.22112,29915
7.22685,32964
7.23257,31201
7.23828,32270
7.24402,31659
7.24973,31306
7.25545,30737
7.26118,30890
7.2669,31480
7.27262,31009
7.27833,30725
7.28407,31275
7.28978,30987
7.2955,29005
7.30123,31383
7.30695,29646
7.31267,30178
7.3184,30200
7.32412,31604
7.32983,30541
7.33557,30456
7.34128,32803
7.347,30668
7.35273,29897
7.35845,31527
7.36417,31082
7.3699,31273
7.37562,31063
7.38133,31040
7.38707,31676
7.39278,31958
7.3985,32381
7.40422,30713
7.40995,30169
7.41567,29911
7.42138,30080
7.42712,32136
7.43283,29200
7.43855,28374
7.44428,29682
7.45,28878
7.45572,31607
7.46145,29721
7.46717,32568
7.47288,29516
7.47862,32682
7.48433,32013
7.49005,30596
7.49578,29958
7.5015,30939
7.50722,33210
7.51295,32165
7.51867,29187
7.52438,32729
7.5301,30019
7.53583,29723
7.54155,31249
7.54727,30818
7.553,31953
7.55872,31127
7.56443,29708
7.57017,29875
7.57588,30336
7.5816,31656
7.58733,30649
7.59305,30301
7.59877,31322
7.6045,32373
7.61022,29796
7.61593,29177
7.62167,32051
7.62738,31555
7.6331,31195
7.63883,29892
7.64455,31512
7.65027,29894
7.65598,30600
7.66172,30050
7.66743,30991
7.67315,30225
7.67888,31161
7.6846,29511
7.69032,32385
7.69605,32070
7.70177,30731
7.70748,31702
7.71322,30121
7.71893,29607
7.72465,29988
7.73038,30264
7.7361,31172
7.74182,31479
7.74755,31232
7.75327,30100
7.75898,31868
7.76472,30148
7.77043,31848
7.77615,31280
7.78187,32538
7.7876,31081
7.79332,32206
7.79903,31177
7.80477,31217
7.81048,30592
7.8162,29175
7.82193,31930
7.82765,28656
7.83337,30429
7.8391,28822
7.84482,29547
7.85053,30647
7.85627,29139
7.86198,31830
7.8677,32243
7.87343,31003
7.87915,28432
7.88487,31247
7.8906,29482
7.89632,28731
7.90203,29322
7.90775,29281
7.91348,29556
7.9192,28092
7.92492,29307
7.93065,31558
7.93637,29548
7.94208,32206
7.94782,30584
7.95353,29929
7.95925,28718
7.96498,30611
7.9707,31184
7.97642,30295
7.98215,30301
7.98787,31028
7.99358,28714
7.99932,30102
8.00503,31114
8.01075,31859
8.01648,31766
8.0222,30021
8.02792,29309
8.03363,32103
8.03937,29711
8.04508,31256
8.0508,31726
8.05653,30759
8.06225,30266
8.06797,30394
8.0737,28596
8.07942,28870
8.08513,30572
8.09087,30315
8.09658,29077
8.1023,30167
8.10803,28598
8.11375,31345
8.11947,29959
8.1252,31030
8.13092,32358
8.13663,31440
8.14237,28787
8.14808,32422
8.1538,30218
8.15952,31308
8.16525,30631
8.17097,30832
8.17668,31049
8.18242,29502
8.18813,30228
8.19385,29073
8.19958,29531
8.2053,28152
8.21102,29776
8.21675,30115
8.22247,29522
8.22818,29535
8.23392,29183
8.23963,30568
8.24535,30201
8.25108,30218
8.2568,30080
8.26252,30632
8.26825,30442
8.27397,30240
8.27968,30871
8.2854,33122
8.29113,32012
8.29685,30836
8.30257,29628
8.3083,31078
8.31402,30813
8.31973,29392
8.32547,29263
8.33118,29842
8.3369,29788
8.34263,29251
8.34835,29806
8.35407,30022
8.3598,29925
8.36552,30941
8.37123,28553
8.37697,29433
8.38268,32767
8.3884,31552
8.39413,30499
8.39985,29820
8.40557,30491
8.41128,31638
8.41702,30719
8.42273,29768
8.42845,30232
8.43418,27251
8.4399,30164
8.44562,28983
8.45135,30255
8.45707,30811
8.46278,29910
8.46852,29602
8.47423,31516
8.47995,30931
8.48568,28803
8.4914,29160
8.49712,29636
8.50285,29204
8.50857,27718
8.51428,28745
8.52002,29299
8.52573,29745
8.53145,29616
8.53717,30926
8.5429,29868
8.54862,28514
8.55433,28321
8.56007,30198
8.56578,29279
8.5715,30302
8.57723,30640
8.58295,31417
8.58867,31016
8.5944,28291
8.60012,28193
8.60583,31123
8.61157,28985
8.61728,30479
8.623,30003
8.62873,28951
8.63445,29289
8.64017,31037
8.6459,30179
8.65162,29729
8.65733,30134
8.66305,29205
8.66878,31863
8.6745,30305
8.68022,29502
8.68595,29157
8.69167,29660
8.69738,30903
8.70312,30794
8.70883,30844
8.71455,28583
8.72028,28665
8.726,30553
8.73172,29038
8.73745,32048
8.74317,30378
8.74888,29998
8.75462,29596
8.76033,28418
8.76605,29701
8.77178,31542
8.7775,30258
8.78322,30634
8.78893,28301
8.79467,30871
8.80038,31176
8.8061,30580
8.81183,31715
8.81755,31377
8.82327,30621
8.829,29394
8.83472,30633
8.84043,27744
8.84617,27959
8.85188,29807
8.8576,30737
8.86333,30085
8.86905,29722
8.87477,27945
8.8805,29808
8.88622,28255
8.89193,30471
8.89767,29800
8.90338,29085
8.9091,31877
8.91482,30691
8.92055,29912
8.92627,29666
8.93198,30511
8.93772,30589
8.94343,29382
8.94915,28943
8.95488,30336
8.9606,28585
8.96632,30651
8.97205,29638
8.97777,31140
8.98348,30537
8.98922,29763
8.99493,30513
9.00065,30142
9.00638,30438
9.0121,30498
9.01782,30108
9.02355,30181
9.02927,29311
9.03498,29668
9.0407,29645
9.04643,27618
9.05215,29777
9.05787,29976
9.0636,28665
9.06932,29560
9.07503,28877
9.08077,28889
9.08648,30956
9.0922,30669
9.09793,29624
9.10365,29688
9.10937,28954
9.1151,30638
9.12082,30337
9.12653,29136
9.13227,30721
9.13798,28719
9.1437,30428
9.14943,31283
9.15515,32263
9.16087,30351
9.16658,31230
9.17232,29372
9.17803,31262
9.18375,33343
9.18948,30552
9.1952,31413
9.20092,30854
9.20665,30233
9.21237,29741
9.21808,30671
9.22382,31195
9.22953,29238
9.23525,29722
9.24098,28053
9.2467,29796
9.25242,28267
9.25815,29436
9.26387,29001
9.26958,29158
9.27532,29363
9.28103,28439
9.28675,27908
9.29247,29690
9.2982,29963
9.30392,29595
9.30963,29837
9.31537,28513
9.32108,30422
9.3268,27375
9.33253,29859
9.33825,30786
9.34397,28737
9.3497,28080
9.35542,31246
9.36113,30255
9.36687,28651
9.37258,29607
9.3783,32736
9.38403,29424
9.38975,28624
9.39547,28217
9.4012,29004
9.40692,28823
9.41263,30101
9.41835,30474
9.42408,29730
9.4298,30584
9.43552,29536
9.44125,30032
9.44697,29998
9.45268,30048
9.45842,31055
9.46413,29333
9.46985,30260
9.47558,29222
9.4813,30367
9.48702,28874
9.49275,29357
9.49847,29542
9.50418,28281
9.50992,30466
9.51563,29649
9.52135,30013
9.52708,31469
9.5328,32236
9.53852,30389
9.54423,28529
9.54997,30939
9.55568,30205
9.5614,31086
9.56713,32313
9.57285,31734
9.57857,31165
9.5843,32723
9.59002,32936
9.59573,32657
9.60147,30220
9.60718,32377
9.6129,32201
9.61863,32814
9.62435,34209
9.63007,34739
9.6358,32492
9.64152,34059
9.64723,31927
9.65297,31497
9.65868,33315
9.6644,31319
9.67012,32222
9.67585,30931
9.68157,31009
9.68728,32768
9.69302,32618
9.69873,33491
9.70445,32541
9.71018,37789
9.7159,43979
9.72162,46362
9.72735,53196
9.73307,52246
9.73878,52728
9.74452,54621
9.75023,53342
9.75595,56624
9.76168,56250
9.7674,57587
9.77312,61156
9.77885,56904
9.78457,55922
9.79028,54488
9.796,56531
9.80173,55042
9.80745,53353
9.81317,51838
9.8189,51757
9.82462,49812
9.83033,48111
9.83607,49254
9.84178,45485
9.8475,46207
9.85323,44013
9.85895,43432
9.86467,45016
9.8704,40647
9.87612,40400
9.88183,41396
9.88757,40754
9.89328,41829
9.899,39746
9.90473,37362
9.91045,39404
9.91617,39150
9.92188,38799
9.92762,39370
9.93333,37865
9.93905,37806
9.94478,38920
9.9505,37976
9.95622,38559
9.96195,36768
9.96767,39135
9.97338,37729
9.97912,38531
9.98483,39369
9.99055,38071
9.99628,37574
10.002,38863
10.0077,37899
10.0135,38534
10.0192,36575
10.0249,38222
10.0306,38715
10.0363,38259
10.0421,36963
10.0478,35779
10.0535,35814
10.0592,36504
10.0649,36383
10.0707,37753
10.0764,34046
10.0821,37433
10.0878,35662
10.0936,33175
10.0993,36191
10.105,36976
10.1107,35960
10.1164,35569
10.1222,35916
10.1279,38806
10.1336,35962
10.1393,37307
10.1451,36334
10.1508,37197
10.1565,35326
10.1622,36511
10.1679,35412
10.1737,36840
10.1794,37252
10.1851,36995
10.1908,34855
10.1966,37711
10.2023,37327
10.208,37170
10.2137,36915
10.2194,36472
10.2252,37875
10.2309,36342
10.2366,35869
10.2423,36987
10.2481,37099
10.2538,35948
10.2595,34496
10.2652,35513
10.2709,37511
10.2767,37339
10.2824,35461
10.2881,37185
10.2938,37491
10.2996,37889
10.3053,35057
10.311,37784
10.3167,34813
10.3224,38430
10.3282,35050
10.3339,36025
10.3396,34963
10.3453,36798
10.351,35632
10.3568,37996
10.3625,37052
10.3682,35550
10.3739,35947
10.3797,34836
10.3854,35773
10.3911,34721
10.3968,34943
10.4025,36173
10.4083,35573
10.414,35835
10.4197,35298
10.4254,36573
10.4312,35188
10.4369,33844
10.4426,35361
10.4483,35417
10.454,34704
10.4598,36088
10.4655,33427
10.4712,33243
10.4769,35504
10.4827,32386
10.4884,32826
10.4941,31078
10.4998,32145
10.5055,32794
10.5113,33039
10.517,31846
10.5227,32666
10.5284,32849
10.5342,31021
10.5399,32008
10.5456,32005
10.5513,32821
10.557,31786
10.5628,30638
10.5685,32803
10.5742,30779
10.5799,31837
10.5856,33316
10.5914,32478
10.5971,30649
10.6028,32953
10.6085,32096
10.6143,34079
10.62,33810
10.6257,34310
10.6314,34627
10.6371,33557
10.6429,34763
10.6486,32297
10.6543,31167
10.66,32200
10.6658,31259
10.6715,33034
10.6772,30265
10.6829,28916
10.6886,30370
10.6944,29504
10.7001,31141
10.7058,30629
10.7115,32272
10.7173,31334
10.723,30690
10.7287,30448
10.7344,30637
10.7401,31033
10.7459,31771
10.7516,31387
10.7573,31082
10.763,29581
10.7688,29515
10.7745,29770
10.7802,27637
10.7859,29591
10.7916,28678
10.7974,28226
10.8031,27615
10.8088,28127
10.8145,29958
10.8202,29918
10.826,29522
10.8317,28852
10.8374,29381
10.8431,29277
10.8489,29094
10.8546,28149
10.8603,27801
10.866,28782
10.8717,29362
10.8775,26445
10.8832,27165
10.8889,29618
10.8946,28706
10.9004,28682
10.9061,28192
10.9118,25910
10.9175,30631
10.9232,29044
10.929,30055
10.9347,29304
10.9404,28548
10.9461,28638
10.9519,29065
10.9576,28607
10.9633,28169
10.969,29196
10.9747,27954
10.9805,28436
10.9862,30109
10.9919,28802
10.9976,30240
11.0034,28142
11.0091,30344
11.0148,31769
11.0205,29363
11.0262,31928
11.032,30398
11.0377,31326
11.0434,32492
11.0491,34312
11.0549,30677
11.0606,34222
11.0663,35042
11.072,38399
11.0777,40643
11.0835,44476
11.0892,47804
11.0949,48488
11.1006,53895
11.1063,58877
11.1121,60212
11.1178,63375
11.1235,66760
11.1292,70560
11.135,68920
11.1407,69639
11.1464,67700
11.1521,69427
11.1578,67694
11.1636,66399
11.1693,65499
11.175,61847
11.1807,61503
11.1865,62728
11.1922,58465
11.1979,53926
11.2036,54216
11.2093,53773
11.2151,55156
11.2208,54245
11.2265,51105
11.2322,51451
11.238,49041
11.2437,46043
11.2494,46762
11.2551,48009
11.2608,47116
11.2666,49061
11.2723,47402
11.278,46692
11.2837,46225
11.2895,46743
11.2952,47453
11.3009,47579
11.3066,47344
11.3123,46204
11.3181,45387
11.3238,45482
11.3295,45488
11.3352,43089
11.3409,43941
11.3467,43423
11.3524,42152
11.3581,42710
11.3638,40924
11.3696,40026
11.3753,40133
11.381,37498
11.3867,38971
11.3924,36040
11.3982,36839
11.4039,38991
11.4096,38051
11.4153,36351
11.4211,34347
11.4268,32900
11.4325,35971
11.4382,35453
11.4439,35846
11.4497,36243
11.4554,35291
11.4611,34001
11.4668,35997
11.4726,35098
11.4783,33560
11.484,32696
11.4897,34226
11.4954,34425
11.5012,34345
11.5069,32204
11.5126,33079
11.5183,31132
11.5241,33684
11.5298,32751
11.5355,31943
11.5412,33647
11.5469,32831
11.5527,32575
11.5584,31177
11.5641,31084
11.5698,32664
11.5755,30499
11.5813,31748
11.587,31982
11.5927,32849
11.5984,32848
11.6042,31241
11.6099,31321
11.6156,30680
11.6213,31720
11.627,31230
11.6328,30822
11.6385,30613
11.6442,29871
11.6499,29781
11.6557,31136
11.6614,32884
11.6671,31247
11.6728,30508
11.6785,29513
11.6843,30547
11.69,31891
11.6957,31261
11.7014,30691
11.7072,30431
11.7129,30814
11.7186,29183
11.7243,28988
11.73,29412
11.7358,30458
11.7415,32130
11.7472,30599
11.7529,30363
11.7587,30712
11.7644,30777
11.7701,29423
11.7758,30457
11.7815,27816
11.7873,28937
11.793,29919
11.7987,30000
11.8044,29241
11.8102,29887
11.8159,30137
11.8216,27132
11.8273,30165
11.833,29837
11.8388,29993
11.8445,29298
11.8502,31017
11.8559,30353
11.8616,30525
11.8674,28612
11.8731,29905
11.8788,30206
11.8845,29599
11.8903,32010
11.896,31673
11.9017,31545
11.9074,30541
11.9131,28900
11.9189,29785
11.9246,30217
11.9303,30330
11.936,29100
11.9418,28058
11.9475,29816
11.9532,28723
11.9589,28161
11.9646,29309
11.9704,26995
11.9761,27136
11.9818,28280
11.9875,29946
11.9933,28968
11.999,28685
12.0047,28722
12.0104,29465
12.0161,29043
12.0219,28811
12.0276,27602
12.0333,28108
12.039,29754
12.0448,31503
12.0505,30506
12.0562,29411
12.0619,27531
12.0676,26199
12.0734,28815
12.0791,28362
12.0848,29436
12.0905,28495
12.0962,28611
12.102,29915
12.1077,28356
12.1134,28264
12.1191,28451
12.1249,28714
12.1306,30059
12.1363,28048
12.142,27588
12.1477,30712
12.1535,29168
12.1592,27865
12.1649,30912
12.1706,28715
12.1764,29046
12.1821,29050
12.1878,28912
12.1935,29666
12.1992,29155
12.205,29052
12.2107,29230
12.2164,30083
12.2221,29654
12.2279,26810
12.2336,29476
12.2393,30557
12.245,27881
12.2507,27850
12.2565,30132
12.2622,28973
12.2679,29334
12.2736,28372
12.2794,30078
12.2851,27924
12.2908,28233
12.2965,29402
12.3022,28985
12.308,27603
12.3137,29494
12.3194,27574
12.3251,29235
12.3308,27538
12.3366,29191
12.3423,28052
12.348,30111
12.3537,30584
12.3595,28021
12.3652,29150
12.3709,27608
12.3766,28714
12.3823,29416
12.3881,28021
12.3938,27627
12.3995,29277
12.4052,29139
12.411,30619
12.4167,29392
12.4224,30435
12.4281,31949
12.4338,28297
12.4396,30306
12.4453,26724
12.451,26803
12.4567,29101
12.4625,29344
12.4682,28156
12.4739,28077
12.4796,29356
12.4853,29460
12.4911,29482
12.4968,28728
12.5025,29571
12.5082,29362
12.514,30203
12.5197,29064
12.5254,28674
12.5311,28637
12.5368,29433
12.5426,29610
12.5483,29009
12.554,30140
12.5597,29608
12.5655,29700
12.5712,29298
12.5769,28245
12.5826,29365
12.5883,28723
12.5941,29691
12.5998,29829
12.6055,30424
12.6112,29051
12.6169,30846
12.6227,30291
12.6284,30993
12.6341,32207
12.6398,29482
12.6456,31883
12.6513,31044
12.657,31551
12.6627,31057
12.6684,30411
12.6742,30639
12.6799,30686
12.6856,30788
12.6913,31025
12.6971,31121
12.7028,28126
12.7085,31696
12.7142,31033
12.7199,31711
12.7257,29357
12.7314,32256
12.7371,30682
12.7428,32461
12.7486,30656
12.7543,30923
12.76,30399
12.7657,32297
12.7714,32178
12.7772,32808
12.7829,30584
12.7886,29812
12.7943,31278
12.8001,33206
12.8058,29769
12.8115,30176
12.8172,32486
12.8229,31443
12.8287,31513
12.8344,31523
12.8401,32805
12.8458,33195
12.8515,33608
12.8573,34855
12.863,31132
12.8687,31949
12.8744,32952
12.8802,30504
12.8859,31532
12.8916,32927
12.8973,29959
12.903,30172
12.9088,31353
12.9145,31361
12.9202,31081
12.9259,30485
12.9317,30165
12.9374,29797
12.9431,30114
12.9488,33008
12.9545,32128
12.9603,31296
12.966,31608
12.9717,31669
12.9774,31934
12.9832,32109
12.9889,28840
12.9946,29385
13.0003,32098
13.006,32548
13.0118,32220
13.0175,30482
13.0232,30993
13.0289,32672
13.0347,33784
13.0404,31535
13.0461,32069
13.0518,33168
13.0575,32745
13.0633,31595
13.069,34757
13.0747,32874
13.0804,33558
13.0861,34101
13.0919,33001
13.0976,33218
13.1033,33563
13.109,34699
13.1148,31623
13.1205,33716
13.1262,33431
13.1319,32871
13.1376,34400
13.1434,34167
13.1491,33085
13.1548,33917
13.1605,33180
13.1663,33444
13.172,35074
13.1777,36260
13.1834,35932
13.1891,36744
13.1949,39648
13.2006,37494
13.2063,37361
13.212,35390
13.2178,37202
13.2235,37496
13.2292,36836
13.2349,37095
13.2406,36069
13.2464,36175
13.2521,37436
13.2578,38094
13.2635,38344
13.2693,37202
13.275,37898
13.2807,36303
13.2864,37693
13.2921,38591
13.2979,36589
13.3036,39329
13.3093,36165
13.315,36900
13.3208,39391
13.3265,36884
13.3322,39659
13.3379,39083
13.3436,41461
13.3494,40273
13.3551,41166
13.3608,39646
13.3665,40347
13.3722,42362
13.378,40975
13.3837,39024
13.3894,42855
13.3951,40809
13.4009,39721
13.4066,42504
13.4123,42031
13.418,42621
13.4237,44116
13.4295,42359
13.4352,42060
13.4409,44381
13.4466,43501
13.4524,42340
13.4581,43868
13.4638,43669
13.4695,46570
13.4752,43133
13.481,43019
13.4867,42167
13.4924,41783
13.4981,42771
13.5039,42398
13.5096,43971
13.5153,43574
13.521,44573
13.5267,43369
13.5325,42806
13.5382,42556
13.5439,45578
13.5496,42786
13.5554,46269
13.5611,45066
13.5668,46592
13.5725,47676
13.5782,45812
13.584,47451
13.5897,44025
13.5954,46839
13.6011,45252
13.6068,46457
13.6126,47294
13.6183,45986
13.624,46073
13.6297,45845
13.6355,47010
13.6412,48519
13.6469,48204
13.6526,44328
13.6583,45981
13.6641,49442
13.6698,47912
13.6755,49954
13.6812,48673
13.687,49218
13.6927,48194
13.6984,48866
13.7041,49190
13.7098,46938
13.7156,48985
13.7213,50060
13.727,52112
13.7327,50393
13.7385,50574
13.7442,49542
13.7499,48351
13.7556,52133
13.7613,52562
13.7671,52443
13.7728,53666
13.7785,53698
13.7842,54263
13.79,55429
13.7957,57128
13.8014,59322
13.8071,56850
13.8128,58244
13.8186,56309
13.8243,54055
13.83,57181
13.8357,56837
13.8414,56516
13.8472,56007
13.8529,57444
13.8586,56644
13.8643,56575
13.8701,58269
13.8758,58193
13.8815,61361
13.8872,61572
13.8929,60617
13.8987,62198
13.9044,61121
13.9101,66480
13.9158,65717
13.9216,65531
13.9273,62261
13.933,62122
13.9387,63731
13.9444,62702
13.9502,62111
13.9559,63365
13.9616,61367
13.9673,61827
13.9731,63335
13.9788,62564
13.9845,62437
13.9902,67309
13.9959,65003
14.0017,63917
14.0074,63381
14.0131,65751
14.0188,64396
14.0246,63806
14.0303,65226
14.036,63185
14.0417,66911
14.0474,63457
14.0532,66641
14.0589,68151
14.0646,68181
14.0703,68773
14.0761,69843
14.0818,67045
14.0875,70033
14.0932,70284
14.0989,71618
14.1047,72341
14.1104,74330
14.1161,74481
14.1218,73552
14.1275,70322
14.1333,68554
14.139,68818
14.1447,73331
14.1504,72073
14.1562,68940
14.1619,68363
14.1676,73503
14.1733,71566
14.179,72216
14.1848,72364
14.1905,72788
14.1962,73001
14.2019,71617
14.2077,70968
14.2134,71917
14.2191,72759
14.2248,72653
14.2305,73257
14.2363,71481
14.242,72496
14.2477,72532
14.2534,73488
14.2592,74134
14.2649,76196
14.2706,75773
14.2763,73825
14.282,76228
14.2878,73783
14.2935,78837
14.2992,73236
14.3049,77576
14.3107,75195
14.3164,75734
14.3221,76671
14.3278,77692
14.3335,78856
14.3393,78406
14.345,78431
14.3507,77790
14.3564,78653
14.3621,80384
14.3679,75369
14.3736,79238
14.3793,80263
14.385,77812
14.3908,80576
14.3965,78153
14.4022,79116
14.4079,83717
14.4136,80631
14.4194,80601
14.4251,82676
14.4308,83582
14.4365,82594
14.4423,83321
14.448,82154
14.4537,83607
14.4594,86062
14.4651,84953
14.4709,85593
14.4766,86125
14.4823,81556
14.488,83077
14.4938,87448
14.4995,85286
14.5052,88985
14.5109,90746
14.5166,89109
14.5224,89537
14.5281,93163
14.5338,88813
14.5395,89105
14.5453,88719
14.551,91220
14.5567,89268
14.5624,90653
14.5681,89176
14.5739,92864
14.5796,94628
14.5853,90969
14.591,94856
14.5967,92915
14.6025,93978
14.6082,95468
14.6139,94853
14.6196,95931
14.6254,97948
14.6311,95258
14.6368,93532
14.6425,98097
14.6482,96701
14.654,97331
14.6597,95223
14.6654,96901
14.6711,97574
14.6769,93750
14.6826,102734
14.6883,99747
14.694,99997
14.6997,98981
14.7055,104308
14.7112,102143
14.7169,98640
14.7226,100596
14.7284,97833
14.7341,98581
14.7398,102488
14.7455,100582
14.7512,104283
14.757,100784
14.7627,103741
14.7684,106986
14.7741,103780
14.7799,104389
14.7856,104838
14.7913,105067
14.797,110570
14.8027,108752
14.8085,106753
14.8142,108121
14.8199,105892
14.8256,112160
14.8314,110022
14.8371,111959
14.8428,110059
14.8485,110460
14.8542,113246
14.86,108010
14.8657,111836
14.8714,112762
14.8771,115506
14.8828,113909
14.8886,113202
14.8943,114653
14.9,112945
14.9057,114783
14.9115,117232
14.9172,111785
14.9229,114283
14.9286,116043
14.9343,116082
14.9401,117584
14.9458,119310
14.9515,121585
14.9572,116288
14.963,119441
14.9687,122120
14.9744,119586
14.9801,120318
14.9858,119687
14.9916,120139
14.9973,124241
15.003,121174
15.0087,124665
15.0145,131286
15.0202,127623
15.0259,126792
15.0316,125558
15.0373,127720
15.0431,127707
15.0488,124872
15.0545,127091
15.0602,126349
15.066,128211
15.0717,129232
15.0774,131689
15.0831,129131
15.0888,134406
15.0946,129587
15.1003,131892
15.106,129928
15.1117,133480
15.1174,132072
15.1232,136908
15.1289,137500
15.1346,138510
15.1403,137955
15.1461,141542
15.1518,138267
15.1575,137719
15.1632,137062
15.1689,137465
15.1747,142484
15.1804,140263
15.1861,141154
15.1918,138667
15.1976,140373
15.2033,144991
15.209,144277
15.2147,146417
15.2204,147476
15.2262,151067
15.2319,153061
15.2376,149176
15.2433,150255
15.2491,145347
15.2548,147338
15.2605,153431
15.2662,151747
15.2719,149605
15.2777,155529
15.2834,161066
15.2891,161042
15.2948,158898
15.3006,162438
15.3063,161624
15.312,161388
15.3177,158425
15.3234,161501
15.3292,164620
15.3349,162479
15.3406,165489
15.3463,162276
15.3521,162252
15.3578,160667
15.3635,160255
15.3692,163146
15.3749,165117
15.3807,163312
15.3864,165442
15.3921,167580
15.3978,165439
15.4035,165829
15.4093,168421
15.415,169912
15.4207,177041
15.4264,172404
15.4322,176491
15.4379,170467
15.4436,167720
15.4493,170181
15.455,170330
15.4608,173250
15.4665,174314
15.4722,176083
15.4779,175703
15.4837,173376
15.4894,178519
15.4951,178571
15.5008,179249
15.5065,178042
15.5123,180220
15.518,183054
15.5237,179559
15.5294,188913
15.5352,187412
15.5409,189075
15.5466,183062
15.5523,182788
15.558,188197
15.5638,188902
15.5695,188976
15.5752,189974
15.5809,187952
15.5867,191273
15.5924,191299
15.5981,191810
15.6038,196180
15.6095,190645
15.6153,199177
15.621,196213
15.6267,196431
15.6324,196647
15.6381,194606
15.6439,191949
15.6496,198973
15.6553,200427
15.661,203113
15.6668,203009
15.6725,204020
15.6782,201117
15.6839,206170
15.6896,204545
15.6954,210538
15.7011,204338
15.7068,210485
15.7125,211005
15.7183,212578
15.724,213145
15.7297,212631
15.7354,211069
15.7411,209814
15.7469,208331
15.7526,211250
15.7583,217583
15.764,212586
15.7698,213127
15.7755,216922
15.7812,220972
15.7869,217596
15.7926,221371
15.7984,221220
15.8041,221399
15.8098,219377
15.8155,222845
15.8213,223702
15.827,224166
15.8327,227924
15.8384,232419
15.8441,229707
15.8499,229399
15.8556,234007
15.8613,233316
15.867,229793
15.8727,234529
15.8785,237860
15.8842,237071
15.8899,232555
15.8956,239215
15.9014,236221
15.9071,242665
15.9128,239248
15.9185,246753
15.9242,249379
15.93,245976
15.9357,250910
15.9414,247402
15.9471,247947
15.9529,250090
15.9586,243596
15.9643,256015
15.97,254645
15.9757,253276
15.9815,257690
15.9872,262582
15.9929,259120
15.9986,256277
16.0043,261256
16.0101,260503
16.0158,262240
16.0215,259707
16.0272,257741
16.033,258305
16.0387,263328
16.0444,264185
16.0501,264381
16.0559,264867
16.0616,268278
16.0673,270296
16.073,270106
16.0787,268276
16.0845,267402
16.0902,272808
16.0959,269855
16.1016,275473
16.1074,272658
16.1131,281030
16.1188,281460
16.1245,273049
16.1302,273923
16.136,275972
16.1417,281507
16.1474,282597
16.1531,279726
16.1588,276959
16.1646,289786
16.1703,292700
16.176,291106
16.1817,287831
16.1874,281040
16.1932,282472
16.1989,289646
16.2046,288673
16.2103,288457
16.2161,294868
16.2218,289913
16.2275,294093
16.2332,298430
16.2389,299659
16.2447,298897
16.2504,295948
16.2561,305923
16.2618,306918
16.2676,305012
16.2733,304703
16.279,304914
16.2847,307251
16.2905,305445
16.2962,306633
16.3019,312889
16.3076,309610
16.3133,312355
16.3191,311907
16.3248,311878
16.3305,310882
16.3362,314320
16.342,312368
16.3477,317070
16.3534,323134
16.3591,321742
16.3648,323077
16.3706,320090
16.3763,321822
16.382,331712
16.3877,321024
16.3934,327589
16.3992,330366
16.4049,338959
16.4106,340688
16.4163,341092
16.422,339505
16.4278,337600
16.4335,343223
16.4392,335774
16.4449,347500
16.4507,345770
16.4564,351002
16.4621,348755
16.4678,349167
16.4735,350106
16.4793,354379
16.485,351817
16.4907,348311
16.4964,352485
16.5022,345980
16.5079,354796
16.5136,358433
16.5193,357735
16.5251,361243
16.5308,363630
16.5365,362331
16.5422,356263
16.5479,357914
16.5537,362247
16.5594,359996
16.5651,362908
16.5708,364519
16.5766,367117
16.5823,366886
16.588,359369
16.5937,364547
16.5994,366210
16.6051,375413
16.6109,369647
16.6166,370272
16.6223,369391
16.628,373719
16.6338,375967
16.6395,382286
16.6452,386794
16.6509,390509
16.6566,389919
16.6624,392334
16.6681,389682
16.6738,392131
16.6795,399949
16.6853,401043
16.691,399184
16.6967,393877
16.7024,405256
16.7082,400936
16.7139,411549
16.7196,412221
16.7253,408479
16.731,413498
16.7368,409465
16.7425,411259
16.7482,411807
16.7539,408197
16.7597,416862
16.7654,414702
16.7711,424869
16.7768,413321
16.7825,418821
16.7883,423475
16.794,429855
16.7997,429955
16.8054,434943
16.8112,430109
16.8169,429257
16.8226,431225
16.8283,429966
16.834,438959
16.8397,439465
16.8455,447915
16.8512,438131
16.8569,448992
16.8626,446907
16.8684,458538
16.8741,461671
16.8798,465765
16.8855,468259
16.8912,461428
16.897,463795
16.9027,465754
16.9084,472105
16.9141,472225
16.9199,477874
16.9256,475202
16.9313,475552
16.937,471615
16.9428,474940
16.9485,480673
16.9542,480092
16.9599,480817
16.9656,480605
16.9714,478467
16.9771,485492
16.9828,480847
16.9885,492385
16.9943,500860
17,501845
17.0057,500170
17.0114,494275
17.0171,505515
17.0228,498933
17.0286,499001
17.0343,503877
17.04,503710
17.0458,505449
17.0515,509347
17.0572,509962
17.0629,505766
17.0686,507615
17.0743,511272
17.0801,514118
17.0858,515026
17.0915,514799
17.0972,517018
17.103,517193
17.1087,510181
17.1144,511368
17.1201,527501
17.1259,525500
17.1316,531055
17.1373,534813
17.143,537451
17.1487,536678
17.1545,537257
17.1602,536708
17.1659,541623
17.1716,540014
17.1774,545681
17.1831,543909
17.1888,547834
17.1945,556113
17.2002,556361
17.206,556073
17.2117,562606
17.2174,560194
17.2231,560933
17.2289,559095
17.2346,565872
17.2403,570363
17.246,572767
17.2517,580019
17.2574,579806
17.2632,565564
17.2689,572815
17.2746,579835
17.2803,587741
17.2861,581204
17.2918,584537
17.2975,582585
17.3032,587252
17.3089,578540
17.3147,588386
17.3204,584319
17.3261,584796
17.3318,598764
17.3376,596952
17.3433,598467
17.349,594016
17.3547,600672
17.3605,608983
17.3662,614774
17.3719,618512
17.3776,619996
17.3833,620347
17.3891,637661
17.3948,629573
17.4005,636347
17.4062,636207
17.412,641749
17.4177,645183
17.4234,643947
17.4291,650248
17.4348,663835
17.4406,669953
17.4463,660326
17.452,650197
17.4577,659559
17.4635,657889
17.4692,668319
17.4749,668033
17.4806,665754
17.4863,675956
17.4921,676863
17.4978,675422
17.5035,686153
17.5092,695455
17.515,679922
17.5207,696396
17.5264,692628
17.5321,692350
17.5378,698629
17.5436,708910
17.5493,699373
17.555,705832
17.5607,704094
17.5665,703446
17.5722,698455
17.5779,710870
17.5836,699439
17.5893,705581
17.5951,715126
17.6008,721289
17.6065,720091
17.6122,713266
17.618,721601
17.6237,720786
17.6294,733317
17.6351,726838
17.6408,730534
17.6466,724763
17.6523,726326
17.658,733502
17.6637,736009
17.6694,736182
17.6752,736561
17.6809,740500
17.6866,735084
17.6923,721444
17.6981,734739
17.7038,731780
17.7095,735608
17.7152,738810
17.7209,726473
17.7267,727904
17.7324,734761
17.7381,732937
17.7438,737220
17.7495,734551
17.7553,736813
17.761,731596
17.7667,734095
17.7724,744227
17.7782,743399
17.7839,740278
17.7896,745955
17.7953,738628
17.8011,749664
17.8068,756097
17.8125,754781
17.8182,752052
17.8239,751285
17.8297,743525
17.8354,740512
17.8411,740693
17.8468,742339
17.8526,746356
17.8583,739306
17.864,744713
17.8697,746163
17.8754,745774
17.8812,742450
17.8869,753081
17.8926,750164
17.8983,742989
17.904,741246
17.9098,740095
17.9155,756436
17.9212,750390
17.9269,753508
17.9327,750144
17.9384,747662
17.9441,753568
17.9498,756944
17.9555,754067
17.9613,760214
17.967,767683
17.9727,758504
17.9784,762810
17.9842,763301
17.9899,757872
17.9956,753787
18.0013,761124
18.007,765434
18.0128,767260
18.0185,766630
18.0242,776000
18.0299,773658
18.0357,762664
18.0414,775479
18.0471,784592
18.0528,793853
18.0585,779682
18.0643,773043
18.07,768303
18.0757,767101
18.0814,765757
18.0872,773416
18.0929,784793
18.0986,789481
18.1043,787683
18.11,786273
18.1158,790301
18.1215,774150
18.1272,770569
18.1329,774230
18.1386,776443
18.1444,774715
18.1501,787975
18.1558,788028
18.1615,783354
18.1672,787492
18.173,788911
18.1787,801315
18.1844,799859
18.1901,791353
18.1959,794559
18.2016,794083
18.2073,788639
18.213,793084
18.2188,795596
18.2245,804555
18.2302,805054
18.2359,798303
18.2416,798123
18.2474,812627
18.2531,807827
18.2588,813580
18.2645,807513
18.2703,804276
18.276,810661
18.2817,801208
18.2874,804221
18.2931,808906
18.2989,808721
18.3046,804998
18.3103,814499
18.316,812986
18.3218,807094
18.3275,808550
18.3332,795244
18.3389,795699
18.3446,792313
18.3504,794334
18.3561,793663
18.3618,794777
18.3675,791689
18.3733,795993
18.379,799753
18.3847,813346
18.3904,817008
18.3961,810570
18.4019,807366
18.4076,813047
18.4133,810148
18.419,806767
18.4247,807162
18.4305,816231
18.4362,817691
18.4419,813609
18.4476,820025
18.4534,815953
18.4591,816857
18.4648,817191
18.4705,820001
18.4762,819328
18.482,831122
18.4877,817472
18.4934,820398
18.4991,819753
18.5049,834285
18.5106,830739
18.5163,833362
18.522,833432
18.5277,840095
18.5335,835218
18.5392,832789
18.5449,831264
18.5506,846222
18.5564,843639
18.5621,845138
18.5678,845715
18.5735,838753
18.5792,837321
18.5849,836193
18.5907,838793
18.5964,836225
18.6021,841769
18.6079,833974
18.6136,840133
18.6193,834195
18.625,839408
18.6307,848430
18.6365,841003
18.6422,848436
18.6479,846219
18.6536,842771
18.6593,833444
18.6651,828570
18.6708,823724
18.6765,838645
18.6822,830081
18.688,835234
18.6937,838601
18.6994,848324
18.7051,847260
18.7108,845424
18.7166,843874
18.7223,847162
18.728,851976
18.7337,845688
18.7395,847493
18.7452,838109
18.7509,851790
18.7566,840389
18.7623,858241
18.7681,853533
18.7738,863261
18.7795,868959
18.7852,864202
18.791,876384
18.7967,858754
18.8024,868514
18.8081,869712
18.8138,866186
18.8196,865606
18.8253,867868
18.831,870007
18.8367,870436
18.8424,874402
18.8482,875797
18.8539,877034
18.8596,869996
18.8653,859503
18.8711,852622
18.8768,868807
18.8825,859294
18.8882,856553
18.8939,845551
18.8997,845147
18.9054,857659
18.9111,861357
18.9168,857961
18.9226,854824
18.9283,860122
18.934,858881
18.9397,865871
18.9454,859085
18.9512,855029
18.9569,851138
18.9626,856491
18.9683,852938
18.9741,863984
18.9798,862775
18.9855,861045
18.9912,858368
18.9969,861833
19.0027,866980
19.0084,870362
19.0141,863184
19.0198,860278
19.0256,869571
19.0313,868504
19.037,879572
19.0427,871622
19.0484,857614
19.0542,864137
19.0599,881434
19.0656,882107
19.0713,885904
19.0771,884340
19.0828,874024
19.0885,880069
19.0942,879307
19.0999,876951
19.1057,883125
19.1114,877131
19.1171,885162
19.1228,892412
19.1286,887873
19.1343,891851
19.14,897341
19.1457,885786
19.1514,887752
19.1572,898983
19.1629,891656
19.1686,901696
19.1743,898822
19.18,901052
19.1858,893520
19.1915,894034
19.1972,894133
19.2029,891748
19.2087,887615
19.2144,890096
19.2201,878928
19.2258,879528
19.2315,890155
19.2373,894113
19.243,894694
19.2487,890332
19.2544,899919
19.2601,888392
19.2659,883183
19.2716,895571
19.2773,891495
19.283,890843
19.2888,883776
19.2945,894021
19.3002,894432
19.3059,886012
19.3117,898178
19.3174,889943
19.3231,914265
19.3288,915362
19.3345,911246
19.3403,908314
19.346,892027
19.3517,897208
19.3574,894797
19.3632,891772
19.3689,897249
19.3746,884327
19.3803,882903
19.386,885493
19.3918,890195
19.3975,882698
19.4032,882921
19.4089,886906
19.4146,890073
19.4204,899553
19.4261,892363
19.4318,888340
19.4375,885596
19.4433,883592
19.449,874378
19.4547,878212
19.4604,882508
19.4661,886207
19.4719,896080
19.4776,892025
19.4833,890365
19.489,892954
19.4948,871420
19.5005,889140
19.5062,889270
19.5119,892587
19.5176,892013
19.5234,890857
19.5291,895154
19.5348,890973
19.5405,891537
19.5463,896362
19.552,891325
19.5577,900044
19.5634,889549
19.5691,890728
19.5749,897405
19.5806,887752
19.5863,887938
19.592,888926
19.5978,901248
19.6035,883555
19.6092,889335
19.6149,889995
19.6206,891722
19.6264,887009
19.6321,887212
19.6378,891208
19.6435,895593
19.6493,894079
19.655,890306
19.6607,897743
19.6664,884544
19.6721,895975
19.6778,887042
19.6836,889058
19.6893,883993
19.695,901115
19.7007,889488
19.7065,899930
19.7122,893047
19.7179,892869
19.7236,901012
19.7294,894284
19.7351,898205
19.7408,886620
19.7465,898527
19.7522,893660
19.758,895714
19.7637,892863
19.7694,888176
19.7751,890176
19.7809,890575
19.7866,894105
19.7923,881398
19.798,898619
19.8037,898923
19.8095,887505
19.8152,890217
19.8209,883275
19.8266,898572
19.8324,900112
19.8381,912355
19.8438,911026
19.8495,911870
19.8552,909354
19.861,917614
19.8667,916546
19.8724,909441
19.8781,912408
19.8839,907771
19.8896,912354
19.8953,910730
19.901,908906
19.9067,907240
19.9125,923713
19.9182,909642
19.9239,918648
19.9296,917624
19.9353,907259
19.9411,899401
19.9468,903764
19.9525,908504
19.9582,909298
19.964,903141
19.9697,907492
19.9754,894811
19.9811,892243
19.9868,905548
19.9926,896337
19.9983,908240
20.004,913892
20.0097,920587
20.0155,915824
20.0212,917354
20.0269,911986
20.0326,906083
20.0383,905058
20.0441,909882
20.0498,900489
20.0555,914521
20.0612,914463
20.067,913222
20.0727,908902
20.0784,909436
20.0841,905219
20.0898,911453
20.0955,918607
20.1013,904829
20.107,917631
20.1127,915022
20.1184,925612
20.1242,912468
20.1299,915093
20.1356,905669
20.1413,902494
20.1471,912003
20.1528,917844
20.1585,908781
20.1642,915213
20.1699,925972
20.1757,914142
20.1814,919914
20.1871,925887
20.1928,930147
20.1986,924636
20.2043,917576
20.21,918090
20.2157,922617
20.2214,921485
20.2272,920922
20.2329,924695
20.2386,913789
20.2443,921406
20.2501,907630
20.2558,913127
20.2615,910308
20.2672,915337
20.2729,922085
20.2787,923022
20.2844,923433
20.2901,914287
20.2958,923098
20.3016,923310
20.3073,925395
20.313,928100
20.3187,926055
20.3244,925189
20.3302,927461
20.3359,926597
20.3416,931831
20.3473,934187
20.3531,926142
20.3588,934817
20.3645,940161
20.3702,937684
20.3759,934882
20.3817,930470
20.3874,934264
20.3931,935152
20.3988,939824
20.4046,945772
20.4103,942640
20.416,942948
20.4217,944803
20.4274,931330
20.4332,930292
20.4389,927337
20.4446,941195
20.4503,937313
20.456,936412
20.4618,944045
20.4675,943080
20.4732,952133
20.4789,932724
20.4847,945008
20.4904,944558
