C:\MSDCHEM\1\DATA\JAMES C\20180125 LACTONE WITH BME AND HYDROXYLAMINE\A 20min.d 25 Jan 18   3:38 pm
Start of data points
3.09265,25734
3.09837,23148
3.1041,25564
3.10982,24210
3.11553,24828
3.12127,23028
3.12698,23619
3.1327,24247
3.13843,24330
3.14415,24234
3.14987,22705
3.1556,24366
3.16132,24754
3.16703,22800
3.17275,23082
3.17848,24847
3.1842,23555
3.18992,23156
3.19565,24122
3.20137,25066
3.20708,25824
3.21282,26372
3.21853,23727
3.22425,25958
3.22998,26403
3.2357,24919
3.24142,26171
3.24715,24880
3.25287,25744
3.25858,24125
3.26432,24821
3.27003,22800
3.27575,23587
3.28148,22240
3.2872,21785
3.29292,21535
3.29863,22827
3.30437,21643
3.31008,20963
3.3158,22110
3.32153,19807
3.32725,18674
3.33297,19977
3.3387,18434
3.34442,18416
3.35013,19175
3.35587,18018
3.36158,17943
3.3673,17382
3.37303,17955
3.37875,18462
3.38447,17514
3.3902,16511
3.39592,15992
3.40163,17792
3.40737,16622
3.41308,16361
3.4188,16279
3.42452,15656
3.43025,15972
3.43597,15453
3.44168,16509
3.44742,16685
3.45313,15660
3.45885,14193
3.46458,15569
3.4703,14625
3.47602,15410
3.48175,14380
3.48747,13430
3.49318,12980
3.49892,14183
3.50463,13878
3.51035,14383
3.51608,14758
3.5218,14966
3.52752,13943
3.53325,13542
3.53897,13607
3.54468,14221
3.5504,14554
3.55613,13890
3.56185,14955
3.56757,12291
3.5733,13724
3.57902,12658
3.58473,14311
3.59047,13031
3.59618,12708
3.6019,12710
3.60763,12274
3.61335,14520
3.61907,12774
3.6248,13108
3.63052,13125
3.63623,12621
3.64197,12724
3.64768,13197
3.6534,13195
3.65913,12560
3.66485,12351
3.67057,12603
3.67628,12020
3.68202,13406
3.68773,12888
3.69345,13536
3.69918,13436
3.7049,14109
3.71062,12270
3.71635,12858
3.72207,11804
3.72778,12124
3.73352,12186
3.73923,12938
3.74495,12257
3.75068,11461
3.7564,11431
3.76212,10740
3.76785,11898
3.77357,11190
3.77928,11353
3.78502,11852
3.79073,11834
3.79645,11215
3.80217,11217
3.8079,10826
3.81362,11601
3.81933,10756
3.82507,11157
3.83078,10408
3.8365,10769
3.84223,10928
3.84795,10095
3.85367,10742
3.8594,10159
3.86512,10805
3.87083,9516
3.87657,11192
3.88228,10539
3.888,10407
3.89373,10911
3.89945,10028
3.90517,10691
3.9109,10064
3.91662,10455
3.92233,9275
3.92805,9354
3.93378,10961
3.9395,10019
3.94522,10001
3.95095,9515
3.95667,10162
3.96238,9999
3.96812,9517
3.97383,10051
3.97955,9926
3.98528,8593
3.991,9231
3.99672,9468
4.00245,9401
4.00817,9330
4.01388,9648
4.01962,9250
4.02533,9030
4.03105,9572
4.03678,9115
4.0425,8746
4.04822,9024
4.05393,8097
4.05967,8406
4.06538,9339
4.0711,9280
4.07683,9451
4.08255,9173
4.08827,8860
4.094,7836
4.09972,7797
4.10543,9274
4.11117,9338
4.11688,10220
4.1226,9123
4.12833,8419
4.13405,8391
4.13977,8748
4.1455,9002
4.15122,7970
4.15693,8549
4.16267,8171
4.16838,7565
4.1741,7954
4.17982,7998
4.18555,8620
4.19127,7682
4.19698,8220
4.20272,8235
4.20843,8467
4.21415,8854
4.21988,8116
4.2256,7642
4.23132,8090
4.23705,8629
4.24277,8083
4.24848,7691
4.25422,8967
4.25993,8162
4.26565,8040
4.27138,8922
4.2771,8349
4.28282,7708
4.28855,7474
4.29427,7750
4.29998,8529
4.3057,8488
4.31143,9101
4.31715,8538
4.32287,8618
4.3286,7831
4.33432,8059
4.34003,7670
4.34577,8193
4.35148,8104
4.3572,7376
4.36293,8056
4.36865,8036
4.37437,7007
4.3801,7353
4.38582,7060
4.39153,7226
4.39727,7602
4.40298,7394
4.4087,7234
4.41443,7683
4.42015,7927
4.42587,8490
4.43158,7839
4.43732,8172
4.44303,7744
4.44875,8042
4.45448,7408
4.4602,7342
4.46592,7258
4.47165,7772
4.47737,6918
4.48308,7348
4.48882,7415
4.49453,7938
4.50025,7244
4.50598,6955
4.5117,7201
4.51742,7371
4.52315,8206
4.52887,7006
4.53458,7495
4.54032,7064
4.54603,7601
4.55175,7812
4.55747,6701
4.5632,7283
4.56892,7184
4.57463,7223
4.58037,7417
4.58608,6453
4.5918,8074
4.59753,7865
4.60325,7017
4.60897,6784
4.6147,7307
4.62042,8235
4.62613,8087
4.63187,6893
4.63758,7549
4.6433,6665
4.64903,7503
4.65475,7224
4.66047,7504
4.6662,7357
4.67192,8363
4.67763,7269
4.68335,7110
4.68908,6619
4.6948,6133
4.70052,6401
4.70625,7179
4.71197,6864
4.71768,6546
4.72342,5928
4.72913,6849
4.73485,6627
4.74058,7016
4.7463,6468
4.75202,6942
4.75775,6531
4.76347,7050
4.76918,7120
4.77492,6591
4.78063,6657
4.78635,7448
4.79208,6533
4.7978,6977
4.80352,6541
4.80923,6373
4.81497,6452
4.82068,7835
4.8264,7255
4.83213,7168
4.83785,5942
4.84357,7101
4.8493,6330
4.85502,7401
4.86073,6631
4.86647,6622
4.87218,6851
4.8779,7832
4.88363,6628
4.88935,7032
4.89507,6184
4.9008,6232
4.90652,6226
4.91223,6924
4.91797,6959
4.92368,6940
4.9294,6716
4.93512,6754
4.94085,5817
4.94657,6344
4.95228,6143
4.95802,7056
4.96373,7431
4.96945,6648
4.97518,6779
4.9809,7573
4.98662,6099
4.99235,6067
4.99807,6639
5.00378,5477
5.00952,5726
5.01523,6311
5.02095,5705
5.02668,6397
5.0324,6387
5.03812,6067
5.04385,6553
5.04957,5505
5.05528,6614
5.061,6709
5.06673,6352
5.07245,6245
5.07817,5805
5.0839,5863
5.08962,6489
5.09533,6298
5.10107,6755
5.10678,6817
5.1125,6657
5.11823,6299
5.12395,5026
5.12967,6326
5.1354,5411
5.14112,6042
5.14683,5932
5.15257,6700
5.15828,6499
5.164,4197
5.16973,6078
5.17545,7054
5.18117,5676
5.18688,6121
5.19262,5696
5.19833,6549
5.20405,6466
5.20978,5690
5.2155,6047
5.22122,5179
5.22695,6420
5.23267,6128
5.23838,6726
5.24412,6377
5.24983,6200
5.25555,6012
5.26128,6633
5.267,5738
5.27272,5621
5.27845,6361
5.28417,6505
5.28988,5916
5.29562,6028
5.30133,5269
5.30705,6306
5.31277,5181
5.3185,5194
5.32422,5238
5.32993,6159
5.33567,4732
5.34138,5606
5.3471,4804
5.35283,6543
5.35855,5329
5.36427,5932
5.37,5970
5.37572,6623
5.38143,5278
5.38717,6374
5.39288,4922
5.3986,7054
5.40433,5338
5.41005,6718
5.41577,6209
5.4215,6518
5.42722,5740
5.43293,5232
5.43865,5623
5.44438,6138
5.4501,5830
5.45582,5863
5.46155,5845
5.46727,6743
5.47298,5523
5.47872,5945
5.48443,6562
5.49015,6463
5.49588,5305
5.5016,4290
5.50732,5508
5.51305,6341
5.51877,5385
5.52448,6116
5.53022,5992
5.53593,5816
5.54165,5865
5.54738,5590
5.5531,6040
5.55882,6002
5.56453,5586
5.57027,6455
5.57598,5626
5.5817,6047
5.58743,6104
5.59315,6028
5.59887,5361
5.6046,5412
5.61032,5155
5.61603,6485
5.62177,5503
5.62748,5829
5.6332,6493
5.63893,5499
5.64465,5937
5.65037,5339
5.6561,5603
5.66182,5450
5.66753,5343
5.67327,5700
5.67898,5500
5.6847,5137
5.69042,5684
5.69615,5796
5.70187,4630
5.70758,5232
5.71332,5877
5.71903,4933
5.72475,6177
5.73048,5589
5.7362,6353
5.74192,5695
5.74765,5546
5.75337,6150
5.75908,5796
5.76482,5576
5.77053,5137
5.77625,6174
5.78198,6745
5.7877,5680
5.79342,5371
5.79915,5300
5.80487,5394
5.81058,5659
5.8163,5788
5.82203,5296
5.82775,5548
5.83347,5366
5.8392,4753
5.84492,4489
5.85063,4622
5.85637,5682
5.86208,5269
5.8678,5447
5.87353,5410
5.87925,5763
5.88497,5347
5.8907,5946
5.89642,4481
5.90213,5071
5.90787,4670
5.91358,5786
5.9193,4407
5.92503,5735
5.93075,5023
5.93647,5163
5.94218,5165
5.94792,5035
5.95363,5778
5.95935,5360
5.96508,4559
5.9708,4732
5.97652,5397
5.98225,4773
5.98797,4910
5.99368,4718
5.99942,5636
6.00513,4510
6.01085,4955
6.01658,4917
6.0223,5857
6.02802,4995
6.03375,6303
6.03947,5515
6.04518,6047
6.05092,5585
6.05663,5921
6.06235,5392
6.06807,4733
6.0738,5036
6.07952,5919
6.08523,4849
6.09097,4819
6.09668,5578
6.1024,6074
6.10813,4749
6.11385,4573
6.11957,5192
6.1253,5843
6.13102,5081
6.13673,5060
6.14247,5493
6.14818,4936
6.1539,6043
6.15963,4298
6.16535,5526
6.17107,5511
6.1768,4866
6.18252,5559
6.18823,4786
6.19395,4860
6.19968,5591
6.2054,5205
6.21112,5226
6.21685,5808
6.22257,6081
6.22828,5336
6.23402,5869
6.23973,5705
6.24545,5613
6.25118,4705
6.2569,5282
6.26262,5037
6.26835,4597
6.27407,5882
6.27978,5614
6.28552,5368
6.29123,5671
6.29695,5479
6.30268,4446
6.3084,5398
6.31412,5528
6.31983,5405
6.32557,5948
6.33128,4948
6.337,5117
6.34273,5098
6.34845,6182
6.35417,4534
6.3599,5048
6.36562,4863
6.37133,5007
6.37707,5170
6.38278,4715
6.3885,5505
6.39423,5398
6.39995,5577
6.40567,3659
6.4114,4825
6.41712,5069
6.42283,4857
6.42857,4799
6.43428,5336
6.44,5599
6.44572,4778
6.45145,5104
6.45717,5761
6.46288,4655
6.46862,4321
6.47433,5379
6.48005,4570
6.48578,5534
6.4915,4716
6.49722,4847
6.50295,4630
6.50867,5661
6.51438,4591
6.52012,5672
6.52583,4791
6.53155,6205
6.53728,4806
6.543,4613
6.54872,5817
6.55445,5010
6.56017,5156
6.56588,5522
6.57162,4645
6.57733,5384
6.58305,4842
6.58877,5009
6.5945,5021
6.60022,5356
6.60593,4672
6.61167,5733
6.61738,5198
6.6231,4117
6.62883,4136
6.63455,5892
6.64027,5309
6.646,5618
6.65172,5321
6.65743,4839
6.66317,5408
6.66888,5086
6.6746,5969
6.68033,5886
6.68605,5989
6.69177,5105
6.6975,5733
6.70322,6092
6.70893,6107
6.71465,5722
6.72038,5823
6.7261,6097
6.73182,6266
6.73755,5904
6.74327,5933
6.74898,6219
6.75472,6602
6.76043,5797
6.76615,5447
6.77188,5888
6.7776,6738
6.78332,5215
6.78905,5824
6.79477,7012
6.80048,6096
6.80622,4690
6.81193,5531
6.81765,5534
6.82338,5703
6.8291,5532
6.83482,6101
6.84053,6126
6.84627,5547
6.85198,5960
6.8577,5269
6.86343,4159
6.86915,5158
6.87487,4317
6.8806,5781
6.88632,4476
6.89203,4567
6.89777,5037
6.90348,5698
6.9092,5278
6.91493,5337
6.92065,4823
6.92637,4949
6.9321,5087
6.93782,5211
6.94353,5444
6.94927,5401
6.95498,5009
6.9607,5099
6.96642,5433
6.97215,6115
6.97787,5351
6.98358,4836
6.98932,4914
6.99503,4797
7.00075,5296
7.00648,5343
7.0122,5488
7.01792,5099
7.02365,5046
7.02937,5544
7.03508,5567
7.04082,4526
7.04653,5212
7.05225,5222
7.05798,4956
7.0637,5367
7.06942,5720
7.07515,5341
7.08087,5298
7.08658,5405
7.0923,5145
7.09803,5666
7.10375,5314
7.10947,6506
7.1152,6454
7.12092,8020
7.12663,8263
7.13237,8931
7.13808,10365
7.1438,9263
7.14953,9242
7.15525,7777
7.16097,8229
7.1667,7345
7.17242,7425
7.17813,7160
7.18387,7395
7.18958,6016
7.1953,6611
7.20103,6278
7.20675,5701
7.21247,5236
7.21818,5147
7.22392,5396
7.22963,5581
7.23535,5216
7.24108,5007
7.2468,4878
7.25252,5361
7.25825,5354
7.26397,5849
7.26968,5986
7.27542,4971
7.28113,5835
7.28685,5401
7.29258,6321
7.2983,6572
7.30402,6716
7.30975,7039
7.31547,6693
7.32118,6468
7.32692,5854
7.33263,6380
7.33835,6657
7.34407,5799
7.3498,5377
7.35552,5629
7.36123,6016
7.36697,5267
7.37268,5093
7.3784,5071
7.38413,4981
7.38985,5831
7.39557,4947
7.4013,5064
7.40702,4557
7.41273,4561
7.41847,4899
7.42418,4891
7.4299,5226
7.43563,5665
7.44135,5462
7.44707,4963
7.4528,5450
7.45852,4932
7.46423,5717
7.46995,5614
7.47568,5273
7.4814,4207
7.48712,6393
7.49285,5258
7.49857,5815
7.50428,5579
7.51002,4907
7.51573,5194
7.52145,5369
7.52718,4822
7.5329,5398
7.53862,5188
7.54435,5193
7.55007,5945
7.55578,5528
7.56152,6249
7.56723,5381
7.57295,5518
7.57868,4765
7.5844,5411
7.59012,6030
7.59583,5145
7.60157,5337
7.60728,5599
7.613,5024
7.61873,5423
7.62445,5906
7.63017,4900
7.6359,4766
7.64162,5015
7.64733,4854
7.65307,5116
7.65878,5515
7.6645,6490
7.67023,5252
7.67595,5287
7.68167,5769
7.6874,6510
7.69312,5400
7.69883,5758
7.70457,6191
7.71028,5442
7.716,6497
7.72172,6929
7.72745,6214
7.73317,7447
7.73888,7701
7.74462,6591
7.75033,7078
7.75605,6203
7.76178,5807
7.7675,6200
7.77322,5922
7.77895,6207
7.78467,5181
7.79038,5158
7.79612,5886
7.80183,6021
7.80755,5309
7.81328,5202
7.819,4984
7.82472,6061
7.83045,5528
7.83617,5597
7.84188,5081
7.8476,5618
7.85333,5552
7.85905,4636
7.86477,5733
7.8705,6127
7.87622,6362
7.88193,5736
7.88767,5430
7.89338,6439
7.8991,5165
7.90483,5972
7.91055,5963
7.91627,5131
7.922,5016
7.92772,6241
7.93343,5323
7.93917,5471
7.94488,5918
7.9506,5230
7.95633,5110
7.96205,4830
7.96777,5518
7.97348,5227
7.97922,5538
7.98493,5878
7.99065,6126
7.99638,5315
8.0021,6093
8.00782,4903
8.01355,6487
8.01927,6189
8.02498,5827
8.03072,6573
8.03643,5842
8.04215,6364
8.04788,4678
8.0536,5570
8.05932,5504
8.06505,5647
8.07077,5852
8.07648,5373
8.08222,6129
8.08793,6429
8.09365,6025
8.09937,5307
8.1051,6912
8.11082,5690
8.11653,6003
8.12227,5349
8.12798,5387
8.1337,5481
8.13943,5970
8.14515,6187
8.15087,5725
8.1566,6544
8.16232,6204
8.16803,5810
8.17377,5809
8.17948,5932
8.1852,5659
8.19093,5671
8.19665,5248
8.20237,5900
8.2081,5654
8.21382,5808
8.21953,6102
8.22525,4850
8.23098,5892
8.2367,6866
8.24242,5701
8.24815,5093
8.25387,6178
8.25958,6149
8.26532,5097
8.27103,5301
8.27675,5859
8.28248,6152
8.2882,5501
8.29392,5181
8.29965,6499
8.30537,5922
8.31108,4512
8.31682,5903
8.32253,6067
8.32825,5936
8.33398,6010
8.3397,5873
8.34542,5945
8.35113,5957
8.35687,5124
8.36258,5781
8.3683,5324
8.37403,6370
8.37975,6104
8.38547,5164
8.3912,5722
8.39692,5406
8.40263,5492
8.40837,5163
8.41408,5858
8.4198,5799
8.42553,6771
8.43125,6277
8.43697,6345
8.4427,6338
8.44842,5809
8.45413,5661
8.45987,5098
8.46558,5436
8.4713,6133
8.47702,5853
8.48275,5942
8.48847,4944
8.49418,6926
8.49992,5450
8.50563,6554
8.51135,5574
8.51708,6356
8.5228,6290
8.52852,5577
8.53425,5773
8.53997,5675
8.54568,6152
8.55142,5889
8.55713,6016
8.56285,6168
8.56858,6033
8.5743,6079
8.58002,6487
8.58575,6034
8.59147,6505
8.59718,5798
8.6029,6223
8.60863,5875
8.61435,5942
8.62007,5799
8.6258,5316
8.63152,5518
8.63723,4728
8.64297,6034
8.64868,5559
8.6544,6469
8.66013,6227
8.66585,5511
8.67157,5315
8.6773,5665
8.68302,6378
8.68873,6195
8.69447,5947
8.70018,5647
8.7059,6449
8.71163,5945
8.71735,6621
8.72307,5784
8.72878,6258
8.73452,5608
8.74023,5421
8.74595,6281
8.75168,6130
8.7574,6546
8.76312,5218
8.76885,5186
8.77457,6209
8.78028,5678
8.78602,5596
8.79173,5828
8.79745,6729
8.80318,5805
8.8089,6702
8.81462,5931
8.82035,6491
8.82607,5198
8.83178,6356
8.83752,6549
8.84323,5779
8.84895,6092
8.85467,4821
8.8604,6497
8.86612,6513
8.87183,5715
8.87757,8501
8.88328,7090
8.889,6161
8.89473,5684
8.90045,6342
8.90617,6347
8.9119,6113
8.91762,6193
8.92333,6217
8.92907,6702
8.93478,6311
8.9405,5945
8.94623,5810
8.95195,6240
8.95767,6876
8.9634,6287
8.96912,6838
8.97483,7269
8.98055,5309
8.98628,6804
8.992,7704
8.99772,8445
9.00345,8007
9.00917,7576
9.01488,6937
9.02062,6271
9.02633,6909
9.03205,7030
9.03778,6638
9.0435,6439
9.04922,7509
9.05495,6011
9.06067,5768
9.06638,6348
9.07212,5767
9.07783,6248
9.08355,6702
9.08928,6563
9.095,7280
9.10072,6652
9.10643,5643
9.11217,5881
9.11788,6176
9.1236,6841
9.12933,6810
9.13505,6714
9.14077,7224
9.1465,6508
9.15222,6801
9.15793,4899
9.16367,6490
9.16938,6160
9.1751,6450
9.18083,7073
9.18655,5501
9.19227,7615
9.198,6361
9.20372,6257
9.20943,6300
9.21517,6191
9.22088,6326
9.2266,5864
9.23232,5776
9.23805,6765
9.24377,5895
9.24948,6593
9.25522,6211
9.26093,5890
9.26665,6310
9.27238,6187
9.2781,6616
9.28382,6466
9.28955,7220
9.29527,6111
9.30098,6321
9.30672,7048
9.31243,6385
9.31815,6478
9.32388,6608
9.3296,5857
9.33532,6010
9.34105,6497
9.34677,6380
9.35248,5580
9.3582,6179
9.36393,6309
9.36965,6858
9.37537,6674
9.3811,6818
9.38682,6587
9.39253,6319
9.39827,5743
9.40398,6255
9.4097,5937
9.41543,6211
9.42115,6783
9.42687,6077
9.4326,5467
9.43832,7917
9.44403,6039
9.44977,6630
9.45548,6431
9.4612,5724
9.46693,5777
9.47265,6658
9.47837,6036
9.48408,6418
9.48982,7042
9.49553,6562
9.50125,5971
9.50698,7045
9.5127,6120
9.51842,7106
9.52415,6472
9.52987,6314
9.53558,7516
9.54132,7131
9.54703,7868
9.55275,7566
9.55848,7235
9.5642,7094
9.56992,7483
9.57565,6886
9.58137,7177
9.58708,7224
9.59282,7419
9.59853,6805
9.60425,7625
9.60997,7725
9.6157,6585
9.62142,6876
9.62713,6291
9.63287,7201
9.63858,7502
9.6443,7077
9.65003,7500
9.65575,7246
9.66147,7333
9.6672,8847
9.67292,9439
9.67863,8884
9.68437,8620
9.69008,7603
9.6958,7132
9.70153,7018
9.70725,7210
9.71297,7557
9.7187,7204
9.72442,7008
9.73013,5980
9.73585,6683
9.74158,6254
9.7473,7289
9.75302,6956
9.75875,7433
9.76447,7923
9.77018,6599
9.77592,6180
9.78163,7577
9.78735,7164
9.79308,6464
9.7988,7140
9.80452,6378
9.81025,6578
9.81597,6936
9.82168,6932
9.82742,6972
9.83313,7621
9.83885,7159
9.84458,6474
9.8503,7861
9.85602,6719
9.86173,7095
9.86747,5968
9.87318,7247
9.8789,7467
9.88463,6911
9.89035,6029
9.89607,7567
9.9018,6913
9.90752,7286
9.91323,5824
9.91897,6671
9.92468,7751
9.9304,5847
9.93613,6747
9.94185,6948
9.94757,6971
9.9533,7431
9.95902,6389
9.96473,7419
9.97047,7846
9.97618,6649
9.9819,7318
9.98762,6846
9.99335,6885
9.99907,7923
10.0048,7374
10.0105,7689
10.0162,7618
10.022,6567
10.0277,7143
10.0334,6411
10.0391,6372
10.0449,6563
10.0506,6448
10.0563,7199
10.062,6870
10.0677,6805
10.0735,7154
10.0792,6661
10.0849,7335
10.0906,6469
10.0964,6989
10.1021,7469
10.1078,6643
10.1135,7212
10.1192,6320
10.125,6875
10.1307,6661
10.1364,6921
10.1421,6343
10.1478,7497
10.1536,6533
10.1593,6178
10.165,6649
10.1707,6832
10.1765,7532
10.1822,7042
10.1879,6523
10.1936,6766
10.1993,6135
10.2051,6920
10.2108,6601
10.2165,6505
10.2222,6896
10.228,6235
10.2337,7285
10.2394,6493
10.2451,7049
10.2508,6361
10.2566,7128
10.2623,7072
10.268,7217
10.2737,7109
10.2795,7501
10.2852,7382
10.2909,6828
10.2966,7657
10.3023,5729
10.3081,6867
10.3138,8032
10.3195,6971
10.3252,6605
10.331,6677
10.3367,5935
10.3424,6870
10.3481,7202
10.3538,7726
10.3596,6375
10.3653,6402
10.371,6548
10.3767,6847
10.3824,7099
10.3882,6852
10.3939,7399
10.3996,6480
10.4053,6655
10.4111,6355
10.4168,7429
10.4225,7099
10.4282,6934
10.4339,7600
10.4397,9161
10.4454,9481
10.4511,8709
10.4568,7109
10.4626,7177
10.4683,5848
10.474,6960
10.4797,6724
10.4854,6703
10.4912,7601
10.4969,7129
10.5026,7885
10.5083,7001
10.5141,6816
10.5198,7581
10.5255,6888
10.5312,7876
10.5369,7660
10.5427,7192
10.5484,7034
10.5541,7806
10.5598,6525
10.5656,7445
10.5713,6951
10.577,7092
10.5827,7356
10.5884,7701
10.5942,7398
10.5999,6860
10.6056,10030
10.6113,13249
10.6171,30418
10.6228,55708
10.6285,84570
10.6342,90686
10.6399,71265
10.6457,41113
10.6514,20843
10.6571,12065
10.6628,9904
10.6685,8922
10.6743,9784
10.68,11064
10.6857,11658
10.6914,9307
10.6972,8907
10.7029,7671
10.7086,7435
10.7143,8209
10.72,6695
10.7258,7206
10.7315,6746
10.7372,8463
10.7429,7705
10.7487,6985
10.7544,7642
10.7601,6950
10.7658,6585
10.7715,7094
10.7773,7211
10.783,7397
10.7887,7909
10.7944,6805
10.8002,7205
10.8059,6562
10.8116,7836
10.8173,6811
10.823,6543
10.8288,6971
10.8345,7714
10.8402,7268
10.8459,8792
10.8517,8849
10.8574,9595
10.8631,8952
10.8688,7949
10.8745,7843
10.8803,7156
10.886,7854
10.8917,6886
10.8974,7928
10.9031,7369
10.9089,7829
10.9146,7267
10.9203,7388
10.926,7281
10.9318,8554
10.9375,7622
10.9432,7552
10.9489,7365
10.9546,7600
10.9604,8067
10.9661,6598
10.9718,7240
10.9775,7575
10.9833,6393
10.989,6722
10.9947,8020
11.0004,6897
11.0061,7389
11.0119,7091
11.0176,7068
11.0233,6875
11.029,7656
11.0348,6988
11.0405,7984
11.0462,7405
11.0519,7741
11.0576,7903
11.0634,9063
11.0691,7646
11.0748,8296
11.0805,7980
11.0863,7293
11.092,8699
11.0977,9100
11.1034,8528
11.1091,8475
11.1149,8321
11.1206,8673
11.1263,7077
11.132,7879
11.1377,7893
11.1435,9033
11.1492,8568
11.1549,8941
11.1606,9420
11.1664,7386
11.1721,8266
11.1778,8889
11.1835,7979
11.1892,8506
11.195,8841
11.2007,8117
11.2064,8652
11.2121,8914
11.2179,10251
11.2236,12383
11.2293,15908
11.235,17677
11.2407,19473
11.2465,17968
11.2522,18791
11.2579,17809
11.2636,17229
11.2694,16832
11.2751,16240
11.2808,15495
11.2865,14840
11.2922,14862
11.298,14748
11.3037,13467
11.3094,12765
11.3151,12613
11.3209,14196
11.3266,13391
11.3323,12365
11.338,12802
11.3437,12109
11.3495,12248
11.3552,12023
11.3609,13464
11.3666,11661
11.3724,12080
11.3781,11237
11.3838,12253
11.3895,11631
11.3952,11541
11.401,11212
11.4067,11541
11.4124,10362
11.4181,9962
11.4238,12039
11.4296,10540
11.4353,10341
11.441,11232
11.4467,11269
11.4525,10786
11.4582,10434
11.4639,9418
11.4696,11109
11.4753,11447
11.4811,11372
11.4868,11337
11.4925,10857
11.4982,10788
11.504,10378
11.5097,10556
11.5154,10807
11.5211,9330
11.5268,11066
11.5326,9296
11.5383,9859
11.544,9675
11.5497,9854
11.5555,8882
11.5612,9467
11.5669,9364
11.5726,9578
11.5783,9701
11.5841,10671
11.5898,9478
11.5955,10150
11.6012,9517
11.607,9832
11.6127,9862
11.6184,9458
11.6241,10593
11.6298,10190
11.6356,11167
11.6413,9930
11.647,10205
11.6527,9145
11.6584,9965
11.6642,9378
11.6699,10936
11.6756,9724
11.6813,9126
11.6871,9183
11.6928,9016
11.6985,10459
11.7042,10931
11.7099,11263
11.7157,10107
11.7214,10976
11.7271,11407
11.7328,10137
11.7386,10073
11.7443,10327
11.75,10914
11.7557,9011
11.7614,10279
11.7672,9408
11.7729,9122
11.7786,9258
11.7843,9835
11.7901,9947
11.7958,9190
11.8015,10395
11.8072,10070
11.8129,9508
11.8187,9729
11.8244,8863
11.8301,8705
11.8358,10296
11.8416,9639
11.8473,8792
11.853,9188
11.8587,8977
11.8644,9908
11.8702,9957
11.8759,9617
11.8816,9748
11.8873,9891
11.893,9733
11.8988,9786
11.9045,8684
11.9102,9355
11.9159,9004
11.9217,9754
11.9274,9976
11.9331,9842
11.9388,10370
11.9445,9392
11.9503,10580
11.956,9438
11.9617,9440
11.9674,9607
11.9732,10138
11.9789,9738
11.9846,8529
11.9903,9626
11.996,9884
12.0018,9302
12.0075,10518
12.0132,9798
12.0189,9334
12.0247,9793
12.0304,8695
12.0361,8670
12.0418,8665
12.0475,9518
12.0533,9442
12.059,9540
12.0647,10296
12.0704,9157
12.0762,9425
12.0819,9327
12.0876,8994
12.0933,9774
12.099,9103
12.1048,10528
12.1105,9826
12.1162,10462
12.1219,10039
12.1277,10419
12.1334,12481
12.1391,12447
12.1448,13749
12.1505,11893
12.1563,11149
12.162,9990
12.1677,10050
12.1734,10354
12.1791,10589
12.1849,8781
12.1906,10666
12.1963,10071
12.202,10362
12.2078,10502
12.2135,10274
12.2192,9701
12.2249,10626
12.2306,9915
12.2364,10796
12.2421,10323
12.2478,9192
12.2535,10356
12.2593,9555
12.265,11057
12.2707,10463
12.2764,10463
12.2821,10991
12.2879,10893
12.2936,10919
12.2993,10747
12.305,11137
12.3108,12164
12.3165,12172
12.3222,11606
12.3279,11968
12.3336,11214
12.3394,11382
12.3451,10741
12.3508,12331
12.3565,11728
12.3623,12568
12.368,11623
12.3737,13231
12.3794,12644
12.3851,13074
12.3909,13657
12.3966,13078
12.4023,14149
12.408,13384
12.4137,13775
12.4195,14426
12.4252,13710
12.4309,14970
12.4366,14291
12.4424,15439
12.4481,15684
12.4538,16110
12.4595,17277
12.4652,15497
12.471,16642
12.4767,17051
12.4824,15792
12.4881,17235
12.4939,17009
12.4996,18485
12.5053,17263
12.511,18042
12.5167,17748
12.5225,16991
12.5282,16379
12.5339,17275
12.5396,17283
12.5454,16464
12.5511,17832
12.5568,17086
12.5625,17478
12.5682,17828
12.574,17645
12.5797,18387
12.5854,18953
12.5911,17928
12.5969,18957
12.6026,20395
12.6083,20979
12.614,22765
12.6197,22679
12.6255,22104
12.6312,20754
12.6369,22334
12.6426,21407
12.6483,21082
12.6541,19182
12.6598,21499
12.6655,19014
12.6712,20634
12.677,20176
12.6827,21179
12.6884,19106
12.6941,19916
12.6998,19122
12.7056,18787
12.7113,19165
12.717,17350
12.7227,18406
12.7285,17321
12.7342,17275
12.7399,19015
12.7456,18002
12.7513,16474
12.7571,17673
12.7628,18471
12.7685,19893
12.7742,18023
12.78,19595
12.7857,18050
12.7914,17903
12.7971,18541
12.8028,18819
12.8086,18575
12.8143,20243
12.82,18094
12.8257,17906
12.8315,16916
12.8372,18010
12.8429,17642
12.8486,17815
12.8543,18556
12.8601,16640
12.8658,16806
12.8715,16612
12.8772,16914
12.883,16620
12.8887,17023
12.8944,18024
12.9001,17623
12.9058,18835
12.9116,19191
12.9173,17018
12.923,16876
12.9287,16479
12.9344,15888
12.9402,15985
12.9459,15822
12.9516,15438
12.9573,16275
12.9631,15479
12.9688,16878
12.9745,16320
12.9802,15220
12.9859,15765
12.9917,15204
12.9974,15958
13.0031,17782
13.0088,15939
13.0146,16192
13.0203,15986
13.026,15004
13.0317,16188
13.0374,15052
13.0432,16216
13.0489,16303
13.0546,15956
13.0603,16305
13.0661,15281
13.0718,14960
13.0775,15712
13.0832,16760
13.0889,14799
13.0947,15061
13.1004,15891
13.1061,16051
13.1118,14452
13.1176,15978
13.1233,15838
13.129,15922
13.1347,15946
13.1404,15395
13.1462,14745
13.1519,14888
13.1576,14647
13.1633,15582
13.169,15586
13.1748,14477
13.1805,15083
13.1862,14343
13.1919,15974
13.1977,16418
13.2034,14920
13.2091,15052
13.2148,14425
13.2205,15924
13.2263,15013
13.232,15382
13.2377,14245
13.2434,15449
13.2492,15877
13.2549,15082
13.2606,15043
13.2663,13916
13.272,14448
13.2778,14913
13.2835,14441
13.2892,14242
13.2949,15505
13.3007,15024
13.3064,16081
13.3121,16835
13.3178,16162
13.3235,15676
13.3293,15744
13.335,17284
13.3407,16670
13.3464,15357
13.3522,15163
13.3579,15201
13.3636,17340
13.3693,15973
13.375,14987
13.3808,16163
13.3865,16318
13.3922,14732
13.3979,16362
13.4036,16767
13.4094,16583
13.4151,15462
13.4208,16512
13.4265,15026
13.4323,16824
13.438,16259
13.4437,16420
13.4494,16600
13.4551,15408
13.4609,15976
13.4666,15637
13.4723,15951
13.478,16571
13.4838,14994
13.4895,15863
13.4952,17009
13.5009,15534
13.5066,16939
13.5124,14532
13.5181,15915
13.5238,16010
13.5295,15108
13.5353,16802
13.541,16062
13.5467,16446
13.5524,14701
13.5581,15975
13.5639,14777
13.5696,14029
13.5753,15223
13.581,15446
13.5868,15316
13.5925,14982
13.5982,16149
13.6039,15672
13.6096,16186
13.6154,16301
13.6211,16279
13.6268,16875
13.6325,17296
13.6383,16817
13.644,16789
13.6497,15586
13.6554,15802
13.6611,17130
13.6669,17064
13.6726,15607
13.6783,16393
13.684,16199
13.6897,17020
13.6955,16428
13.7012,16431
13.7069,16432
13.7126,15338
13.7184,15657
13.7241,15786
13.7298,17829
13.7355,17324
13.7412,16830
13.747,16659
13.7527,16655
13.7584,15594
13.7641,15861
13.7699,17217
13.7756,17265
13.7813,15946
13.787,16886
13.7927,16883
13.7985,15812
13.8042,15973
13.8099,15948
13.8156,18871
13.8214,17483
13.8271,16340
13.8328,17511
13.8385,15170
13.8442,16958
13.85,17021
13.8557,17205
13.8614,17130
13.8671,17203
13.8729,17160
13.8786,17610
13.8843,16853
13.89,16178
13.8957,18717
13.9015,17255
13.9072,16960
13.9129,15922
13.9186,16073
13.9243,17404
13.9301,18175
13.9358,16945
13.9415,16416
13.9472,17472
13.953,15909
13.9587,16573
13.9644,16393
13.9701,18472
13.9758,18772
13.9816,18464
13.9873,19825
13.993,17540
13.9987,17682
14.0045,17368
14.0102,19326
14.0159,17375
14.0216,16926
14.0273,16032
14.0331,18782
14.0388,17167
14.0445,18293
14.0502,17594
14.056,17308
14.0617,16651
14.0674,16869
14.0731,16557
14.0788,17411
14.0846,17840
14.0903,17902
14.096,18865
14.1017,17263
14.1075,18433
14.1132,16689
14.1189,16231
14.1246,17450
14.1303,16788
14.1361,17716
14.1418,17595
14.1475,16630
14.1532,17147
14.1589,16989
14.1647,19686
14.1704,17039
14.1761,18949
14.1818,18902
14.1876,17578
14.1933,18337
14.199,18152
14.2047,16819
14.2104,18649
14.2162,18242
14.2219,18173
14.2276,17666
14.2333,17051
14.2391,18680
14.2448,18192
14.2505,18081
14.2562,19725
14.2619,19259
14.2677,19378
14.2734,19423
14.2791,17484
14.2848,19054
14.2906,18774
14.2963,21092
14.302,18375
14.3077,18907
14.3134,18917
14.3192,19137
14.3249,17908
14.3306,19049
14.3363,19596
14.3421,19414
14.3478,19030
14.3535,20344
14.3592,20110
14.3649,19518
14.3707,19439
14.3764,19187
14.3821,18950
14.3878,20023
14.3936,19302
14.3993,20067
14.405,19242
14.4107,21042
14.4164,21307
14.4222,20331
14.4279,21226
14.4336,20084
14.4393,21376
14.445,21016
14.4508,20973
14.4565,20816
14.4622,19609
14.4679,22730
14.4737,20344
14.4794,21546
14.4851,23392
14.4908,22274
14.4965,22963
14.5023,21650
14.508,21644
14.5137,21320
14.5194,23217
14.5252,23212
14.5309,23340
14.5366,23556
14.5423,22613
14.548,22274
14.5538,23100
14.5595,22035
14.5652,23240
14.5709,21516
14.5767,23836
14.5824,23145
14.5881,22818
14.5938,23188
14.5995,22452
14.6053,22945
14.611,24768
14.6167,22825
14.6224,22368
14.6282,23016
14.6339,24280
14.6396,23460
14.6453,24471
14.651,23479
14.6568,25276
14.6625,24466
14.6682,24929
14.6739,24506
14.6796,25882
14.6854,24998
14.6911,24571
14.6968,24356
14.7025,26760
14.7083,25542
14.714,23621
14.7197,27087
14.7254,26030
14.7311,26655
14.7369,26677
14.7426,25193
14.7483,25788
14.754,27103
14.7598,27259
14.7655,26832
14.7712,26166
14.7769,26022
14.7826,25909
14.7884,27673
14.7941,26796
14.7998,28999
14.8055,26242
14.8113,28849
14.817,28468
14.8227,28480
14.8284,29553
14.8341,27531
14.8399,28035
14.8456,29410
14.8513,26905
14.857,29014
14.8628,29084
14.8685,28604
14.8742,28390
14.8799,28636
14.8856,30037
14.8914,28176
14.8971,29602
14.9028,27872
14.9085,30227
14.9143,32219
14.92,30386
14.9257,32025
14.9314,31000
14.9371,30255
14.9429,32246
14.9486,32279
14.9543,33358
14.96,32391
14.9657,33135
14.9715,32969
14.9772,32004
14.9829,30823
14.9886,32293
14.9944,32819
15.0001,32326
15.0058,32158
15.0115,31612
15.0172,33189
15.023,32475
15.0287,33716
15.0344,32913
15.0401,33616
15.0459,34132
15.0516,33872
15.0573,32313
15.063,35117
15.0687,36204
15.0745,36750
15.0802,32121
15.0859,36694
15.0916,35424
15.0974,35368
15.1031,34649
15.1088,35066
15.1145,35035
15.1202,35423
15.126,35241
15.1317,37092
15.1374,38694
15.1431,35637
15.1489,37105
15.1546,36257
15.1603,37681
15.166,38403
15.1717,35548
15.1775,38248
15.1832,38470
15.1889,36789
15.1946,37792
15.2003,37905
15.2061,35710
15.2118,39861
15.2175,39676
15.2232,37912
15.229,39978
15.2347,39583
15.2404,39426
15.2461,38997
15.2518,40378
15.2576,40876
15.2633,39232
15.269,40224
15.2747,39147
15.2805,39011
15.2862,40195
15.2919,37786
15.2976,39631
15.3033,41577
15.3091,40860
15.3148,42277
15.3205,40338
15.3262,42077
15.332,40755
15.3377,41268
15.3434,42001
15.3491,42319
15.3548,42447
15.3606,42956
15.3663,41014
15.372,41684
15.3777,42829
15.3835,41065
15.3892,44859
15.3949,44768
15.4006,44378
15.4063,43856
15.4121,44755
15.4178,44173
15.4235,44127
15.4292,44481
15.4349,45826
15.4407,45574
15.4464,46002
15.4521,46527
15.4578,45732
15.4636,47131
15.4693,45626
15.475,47168
15.4807,46363
15.4864,45782
15.4922,48381
15.4979,46880
15.5036,48178
15.5093,46823
15.5151,48780
15.5208,50681
15.5265,47518
15.5322,47213
15.5379,49169
15.5437,51663
15.5494,51280
15.5551,50923
15.5608,50562
15.5666,50209
15.5723,51262
15.578,49589
15.5837,48441
15.5894,52858
15.5952,50382
15.6009,49208
15.6066,51246
15.6123,51341
15.6181,51992
15.6238,53569
15.6295,52624
15.6352,54619
15.6409,54320
15.6467,52919
15.6524,54573
15.6581,51939
15.6638,56049
15.6696,55685
15.6753,51278
15.681,54619
15.6867,54388
15.6924,53705
15.6982,53906
15.7039,57067
15.7096,55247
15.7153,57930
15.721,56685
15.7268,56456
15.7325,57237
15.7382,58659
15.7439,58692
15.7497,60060
15.7554,58494
15.7611,58017
15.7668,57731
15.7725,58966
15.7783,59353
15.784,60571
15.7897,58564
15.7954,58774
15.8012,60738
15.8069,58627
15.8126,59103
15.8183,60556
15.824,63198
15.8298,63848
15.8355,61114
15.8412,61717
15.8469,62124
15.8527,64939
15.8584,64762
15.8641,62675
15.8698,64453
15.8755,66254
15.8813,67671
15.887,63108
15.8927,67240
15.8984,65202
15.9042,66713
15.9099,67229
15.9156,64710
15.9213,66663
15.927,66059
15.9328,68388
15.9385,66737
15.9442,68235
15.9499,66012
15.9556,67461
15.9614,69108
15.9671,68884
15.9728,66686
15.9785,66374
15.9843,67541
15.99,67662
15.9957,71793
16.0014,69645
16.0071,71235
16.0129,72045
16.0186,69141
16.0243,72163
16.03,71279
16.0358,69922
16.0415,71602
16.0472,71863
16.0529,72286
16.0586,74158
16.0644,73327
16.0701,73716
16.0758,74296
16.0815,72432
16.0873,74039
16.093,76588
16.0987,76034
16.1044,75931
16.1101,76301
16.1158,76035
16.1216,79324
16.1273,77962
16.133,77522
16.1388,75334
16.1445,80785
16.1502,76950
16.1559,79426
16.1616,79063
16.1673,80590
16.1731,79248
16.1788,81403
16.1845,80807
16.1902,82331
16.196,81158
16.2017,83536
16.2074,82445
16.2131,82855
16.2189,83424
16.2246,84877
16.2303,83913
16.236,83189
16.2417,85636
16.2475,85255
16.2532,84618
16.2589,83941
16.2646,82905
16.2704,86083
16.2761,86573
16.2818,88899
16.2875,85205
16.2932,87897
16.299,85824
16.3047,87327
16.3104,86041
16.3161,90109
16.3219,87717
16.3276,89689
16.3333,91134
16.339,91911
16.3447,90399
16.3504,92895
16.3562,92739
16.3619,92749
16.3676,91403
16.3733,92752
16.3791,94860
16.3848,94161
16.3905,94718
16.3962,95983
16.4019,94303
16.4077,93464
16.4134,97156
16.4191,96578
16.4248,98562
16.4306,94599
16.4363,96064
16.442,98462
16.4477,97673
16.4535,100056
16.4592,99666
16.4649,99833
16.4706,100993
16.4763,101238
16.4821,98739
16.4878,100512
16.4935,101235
16.4992,99703
16.505,103807
16.5107,103084
16.5164,106170
16.5221,104729
16.5278,107960
16.5336,107571
16.5393,108289
16.545,105851
16.5507,105095
16.5565,107070
16.5622,107410
16.5679,110071
16.5736,109035
16.5793,111325
16.585,112527
16.5908,112453
16.5965,112423
16.6022,106673
16.6079,107093
16.6137,109860
16.6194,112445
16.6251,114280
16.6308,109933
16.6366,115660
16.6423,114032
16.648,116527
16.6537,113906
16.6595,112492
16.6652,113973
16.6709,116150
16.6766,113668
16.6823,117794
16.6881,115524
16.6938,117695
16.6995,118690
16.7052,115895
16.7109,121009
16.7167,118787
16.7224,119358
16.7281,115757
16.7338,119733
16.7396,120663
16.7453,124112
16.751,125730
16.7567,127001
16.7624,123937
16.7682,125820
16.7739,127033
16.7796,124951
16.7853,127296
16.791,125625
16.7968,125399
16.8025,129405
16.8082,129114
16.8139,127624
16.8196,129722
16.8254,125521
16.8311,128787
16.8368,125345
16.8425,132490
16.8483,129944
16.854,134810
16.8597,128647
16.8654,133607
16.8712,134154
16.8769,138210
16.8826,134131
16.8883,136418
16.8941,137998
16.8998,136983
16.9055,135859
16.9112,140433
16.9169,139803
16.9227,140111
16.9284,142020
16.9341,141134
16.9398,142083
16.9455,141626
16.9513,145432
16.957,142398
16.9627,142787
16.9684,143468
16.9742,144831
16.9799,147974
16.9856,146226
16.9913,149691
16.997,150968
17.0028,149560
17.0085,150177
17.0142,154149
17.0199,154241
17.0256,155382
17.0314,154771
17.0371,154615
17.0428,155072
17.0485,154499
17.0543,153309
17.06,155790
17.0657,159223
17.0714,154578
17.0772,153516
17.0829,157022
17.0886,156818
17.0943,156810
17.1,159510
17.1058,157202
17.1115,160295
17.1172,155782
17.1229,160930
17.1287,159834
17.1344,163637
17.1401,160912
17.1458,160558
17.1515,163221
17.1573,162434
17.163,162896
17.1687,161045
17.1744,163280
17.1802,163843
17.1859,163016
17.1916,165571
17.1973,162281
17.203,162032
17.2087,161912
17.2145,163512
17.2202,163595
17.2259,164743
17.2316,165193
17.2374,162505
17.2431,163573
17.2488,170237
17.2545,168486
17.2602,167033
17.266,165385
17.2717,162327
17.2774,167087
17.2831,169042
17.2889,163399
17.2946,168594
17.3003,168479
17.306,169818
17.3118,168488
17.3175,168338
17.3232,167820
17.3289,169074
17.3346,172125
17.3404,164895
17.3461,172314
17.3518,167835
17.3575,171287
17.3633,170302
17.369,176242
17.3747,168958
17.3804,172561
17.3861,170548
17.3919,173228
17.3976,170501
17.4033,175916
17.409,171532
17.4148,174918
17.4205,173064
17.4262,174108
17.4319,172503
17.4376,174115
17.4433,170657
17.4491,169561
17.4548,172079
17.4605,176326
17.4662,172745
17.472,173336
17.4777,176390
17.4834,173404
17.4891,171070
17.4949,175817
17.5006,173638
17.5063,176257
17.512,176839
17.5177,178525
17.5235,178358
17.5292,173779
17.5349,175041
17.5406,174478
17.5464,177082
17.5521,176498
17.5578,176139
17.5635,178977
17.5692,181839
17.575,180733
17.5807,178505
17.5864,176654
17.5921,180984
17.5979,179664
17.6036,173708
17.6093,177541
17.615,179880
17.6207,177008
17.6265,179486
17.6322,181306
17.6379,178754
17.6436,177264
17.6494,175964
17.6551,172014
17.6608,174143
17.6665,170824
17.6722,175720
17.6779,174615
17.6837,178741
17.6894,176355
17.6951,176040
17.7008,173938
17.7066,178680
17.7123,176009
17.718,175000
17.7237,179310
17.7295,180244
17.7352,178843
17.7409,181652
17.7466,175807
17.7523,180685
17.7581,175793
17.7638,177672
17.7695,178257
17.7752,182302
17.781,179694
17.7867,178940
17.7924,177750
17.7981,177406
17.8038,180342
17.8096,180035
17.8153,179718
17.821,181596
17.8267,180814
17.8325,177507
17.8382,175329
17.8439,179267
17.8496,174846
17.8553,176467
17.8611,175411
17.8668,172815
17.8725,177208
17.8782,176419
17.884,182817
17.8897,181269
17.8954,176627
17.9011,183148
17.9068,183130
17.9126,178702
17.9183,178038
17.924,176682
17.9297,181218
17.9354,178085
17.9412,182359
17.9469,183235
17.9526,181311
17.9583,181378
17.9641,181702
17.9698,182556
17.9755,179222
17.9812,181434
17.9869,183417
17.9927,184672
