C:\MSDCHEM\1\DATA\SERINA\20170928 LACTONE_STD_CURVE\8.d 28 Sep 17   5:27 pm
Start of data points
5.09265,125555
5.09837,127278
5.1041,128032
5.10982,127366
5.11553,130061
5.12127,126558
5.12698,136734
5.1327,137686
5.13843,132263
5.14415,141062
5.14987,139924
5.15558,139150
5.16132,139153
5.16703,144649
5.17275,138351
5.17848,140142
5.1842,137207
5.18992,134987
5.19565,134974
5.20137,128791
5.20708,123263
5.21282,122074
5.21853,118635
5.22425,115331
5.22998,110594
5.2357,106572
5.24142,105379
5.24715,102024
5.25287,98366
5.25858,97274
5.26432,92253
5.27003,91009
5.27575,88287
5.28147,85665
5.2872,82923
5.29292,84535
5.29863,80873
5.30437,81842
5.31008,77182
5.3158,77673
5.32153,73732
5.32725,76542
5.33297,72660
5.3387,70995
5.34442,73985
5.35013,72057
5.35587,71554
5.36158,71222
5.3673,69133
5.37303,71004
5.37875,71016
5.38447,70015
5.3902,69371
5.39592,68967
5.40163,70323
5.40735,65687
5.41308,67069
5.4188,66087
5.42452,67552
5.43025,66716
5.43597,64364
5.44168,64212
5.44742,64883
5.45313,66294
5.45885,65852
5.46458,65452
5.4703,61895
5.47602,65603
5.48175,62154
5.48747,63631
5.49318,59870
5.49892,61933
5.50463,60994
5.51035,61276
5.51608,63112
5.5218,60709
5.52752,61625
5.53323,59091
5.53897,59168
5.54468,59899
5.5504,59339
5.55613,61460
5.56185,58422
5.56757,61410
5.5733,59478
5.57902,59085
5.58473,59637
5.59047,58027
5.59618,58149
5.6019,56730
5.60763,57625
5.61335,55654
5.61907,58359
5.6248,55928
5.63052,55037
5.63623,58149
5.64197,55628
5.64768,58552
5.6534,57065
5.65912,57171
5.66485,55249
5.67057,55322
5.67628,55153
5.68202,55618
5.68773,53359
5.69345,52466
5.69918,56505
5.7049,54826
5.71062,55197
5.71635,53288
5.72207,52023
5.72778,54200
5.73352,52630
5.73923,55118
5.74495,53917
5.75068,51479
5.7564,55417
5.76212,52237
5.76785,51458
5.77357,51245
5.77928,52899
5.785,52474
5.79073,53673
5.79645,53049
5.80217,52958
5.8079,52247
5.81362,52815
5.81933,53272
5.82507,54610
5.83078,53334
5.8365,51840
5.84223,56500
5.84795,54214
5.85367,55267
5.8594,55943
5.86512,52952
5.87083,53919
5.87657,53992
5.88228,52023
5.888,51260
5.89373,52459
5.89945,50897
5.90517,51314
5.91088,50422
5.91662,51673
5.92233,51557
5.92805,51183
5.93378,50109
5.9395,46170
5.94522,48310
5.95095,48460
5.95667,46577
5.96238,47700
5.96812,50371
5.97383,50016
5.97955,47597
5.98528,46562
5.991,47988
5.99672,46600
6.00245,48086
6.00817,50004
6.01388,48142
6.01962,49446
6.02533,48405
6.03105,49547
6.03677,47137
6.0425,48988
6.04822,47739
6.05393,46715
6.05967,47956
6.06538,46329
6.0711,46342
6.07683,46386
6.08255,48132
6.08827,46671
6.094,47686
6.09972,45699
6.10543,46754
6.11117,45510
6.11688,48811
6.1226,46459
6.12833,43060
6.13405,45955
6.13977,44161
6.1455,45759
6.15122,43713
6.15693,45374
6.16265,45100
6.16838,44670
6.1741,45840
6.17982,47199
6.18555,46615
6.19127,44315
6.19698,43892
6.20272,45935
6.20843,44356
6.21415,47013
6.21988,44283
6.2256,43858
6.23132,43989
6.23705,41033
6.24277,45096
6.24848,44293
6.25422,44112
6.25993,43824
6.26565,44377
6.27138,43569
6.2771,44351
6.28282,42781
6.28853,44559
6.29427,42336
6.29998,41402
6.3057,44947
6.31143,44131
6.31715,42032
6.32287,44042
6.3286,44965
6.33432,44089
6.34003,45670
6.34577,43963
6.35148,42079
6.3572,42584
6.36293,43148
6.36865,41690
6.37437,42755
6.3801,43668
6.38582,43222
6.39153,41419
6.39727,41781
6.40298,42780
6.4087,43415
6.41442,39425
6.42015,39950
6.42587,41377
6.43158,39747
6.43732,41990
6.44303,41245
6.44875,40837
6.45448,42177
6.4602,42757
6.46592,41173
6.47165,41771
6.47737,42616
6.48308,42103
6.48882,41946
6.49453,41833
6.50025,42855
6.50598,42084
6.5117,40269
6.51742,40891
6.52315,42386
6.52887,41548
6.53458,40206
6.5403,39076
6.54603,43194
6.55175,40487
6.55747,41430
6.5632,39292
6.56892,40858
6.57463,38752
6.58037,39313
6.58608,41702
6.5918,43217
6.59753,40584
6.60325,39534
6.60897,37553
6.6147,42450
6.62042,41679
6.62613,40561
6.63187,41585
6.63758,40186
6.6433,39080
6.64903,40651
6.65475,40693
6.66047,38891
6.66618,41399
6.67192,41041
6.67763,38568
6.68335,39601
6.68908,41498
6.6948,37744
6.70052,40944
6.70625,39851
6.71197,41450
6.71768,41646
6.72342,38807
6.72913,40648
6.73485,39119
6.74058,38841
6.7463,38149
6.75202,39264
6.75775,38193
6.76347,39350
6.76918,37867
6.77492,39101
6.78063,37660
6.78635,40050
6.79207,37520
6.7978,39882
6.80352,38162
6.80923,37850
6.81497,38868
6.82068,38426
6.8264,38616
6.83213,36839
6.83785,36750
6.84357,39205
6.8493,36550
6.85502,38446
6.86073,39443
6.86647,36738
6.87218,37780
6.8779,37894
6.88363,38503
6.88935,40132
6.89507,38349
6.9008,36959
6.90652,38422
6.91223,36718
6.91795,38861
6.92368,38092
6.9294,36946
6.93512,38521
6.94085,37308
6.94657,38026
6.95228,37471
6.95802,37031
6.96373,36436
6.96945,36587
6.97518,38412
6.9809,35367
6.98662,37754
6.99235,36854
6.99807,38543
7.00378,37656
7.00952,40434
7.01523,37260
7.02095,38641
7.02668,37483
7.0324,36781
7.03812,38522
7.04383,37449
7.04957,36409
7.05528,36742
7.061,34761
7.06673,37077
7.07245,38233
7.07817,37699
7.0839,37510
7.08962,39231
7.09533,36788
7.10107,38074
7.10678,37281
7.1125,38261
7.11823,37909
7.12395,35868
7.12967,36290
7.1354,35764
7.14112,33815
7.14683,34972
7.15257,35832
7.15828,36912
7.164,37227
7.16972,37211
7.17545,36382
7.18117,37086
7.18688,37300
7.19262,35838
7.19833,36276
7.20405,35875
7.20978,36508
7.2155,36499
7.22122,36123
7.22695,37523
7.23267,36911
7.23838,36964
7.24412,36483
7.24983,36618
7.25555,34860
7.26128,36744
7.267,34348
7.27272,36502
7.27845,34550
7.28417,34294
7.28988,35087
7.2956,35835
7.30133,36999
7.30705,37026
7.31277,34940
7.3185,35347
7.32422,36864
7.32993,33528
7.33567,36443
7.34138,36036
7.3471,35365
7.35283,35523
7.35855,35501
7.36427,34345
7.37,34005
7.37572,33319
7.38143,35649
7.38717,35170
7.39288,35748
7.3986,33411
7.40433,35779
7.41005,35989
7.41577,36443
7.42148,36244
7.42722,36699
7.43293,35468
7.43865,34972
7.44438,36552
7.4501,34737
7.45582,33753
7.46155,36031
7.46727,35408
7.47298,36144
7.47872,37153
7.48443,36919
7.49015,35578
7.49588,35617
7.5016,35378
7.50732,35237
7.51305,35629
7.51877,33952
7.52448,34197
7.53022,36500
7.53593,37193
7.54165,35567
7.54737,35328
7.5531,33340
7.55882,34782
7.56453,36469
7.57027,35761
7.57598,34380
7.5817,36913
7.58743,35840
7.59315,35469
7.59887,34910
7.6046,33489
7.61032,34309
7.61603,35366
7.62177,34459
7.62748,35498
7.6332,35549
7.63893,34520
7.64465,34989
7.65037,35496
7.6561,33884
7.66182,33438
7.66753,37625
7.67325,34097
7.67898,34090
7.6847,36329
7.69042,35233
7.69615,35533
7.70187,32792
7.70758,37151
7.71332,34841
7.71903,33835
7.72475,32394
7.73048,33842
7.7362,35738
7.74192,34100
7.74765,32841
7.75337,33605
7.75908,33389
7.76482,34888
7.77053,35469
7.77625,33429
7.78198,34563
7.7877,33622
7.79342,33990
7.79913,32676
7.80487,33469
7.81058,32416
7.8163,35036
7.82203,31310
7.82775,33469
7.83347,33792
7.8392,35163
7.84492,34852
7.85063,32498
7.85637,34431
7.86208,33525
7.8678,33336
7.87353,35592
7.87925,33967
7.88497,35324
7.8907,35135
7.89642,34459
7.90213,34527
7.90787,34026
7.91358,35392
7.9193,34506
7.92502,33146
7.93075,33904
7.93647,35610
7.94218,34041
7.94792,34243
7.95363,34491
7.95935,35761
7.96508,36083
7.9708,35104
7.97652,32199
7.98225,34061
7.98797,35133
7.99368,33070
7.99942,35166
8.00513,33306
8.01085,35004
8.01658,32638
8.0223,34417
8.02802,34858
8.03375,34150
8.03947,33429
8.04518,33892
8.0509,34055
8.05663,35834
8.06235,31910
8.06807,35900
8.0738,32749
8.07952,33273
8.08523,33708
8.09097,32918
8.09668,32399
8.1024,36448
8.10813,33900
8.11385,35169
8.11957,33890
8.1253,31312
8.13102,35713
8.13673,33732
8.14247,33505
8.14818,35936
8.1539,34558
8.15963,34014
8.16535,33868
8.17107,34886
8.17678,34571
8.18252,33370
8.18823,34221
8.19395,34033
8.19968,36011
8.2054,33877
8.21112,33285
8.21685,34010
8.22257,35336
8.22828,35321
8.23402,32022
8.23973,32049
8.24545,30013
8.25118,33823
8.2569,34124
8.26262,33868
8.26835,34271
8.27407,32082
8.27978,30896
8.28552,31943
8.29123,34654
8.29695,31877
8.30267,34075
8.3084,34762
8.31412,31626
8.31983,35329
8.32557,35666
8.33128,32993
8.337,34707
8.34273,34947
8.34845,33597
8.35417,32472
8.3599,33730
8.36562,36084
8.37133,35069
8.37707,35071
8.38278,35333
8.3885,33613
8.39423,32206
8.39995,34171
8.40567,36077
8.4114,34123
8.41712,34403
8.42283,32891
8.42855,31160
8.43428,33114
8.44,32682
8.44572,33906
8.45145,32852
8.45717,31897
8.46288,32243
8.46862,33653
8.47433,35558
8.48005,32356
8.48578,34222
8.4915,33665
8.49722,32768
8.50295,33157
8.50867,32771
8.51438,32758
8.52012,33027
8.52583,33898
8.53155,32590
8.53728,33181
8.543,34404
8.54872,34039
8.55445,34640
8.56017,32425
8.56588,34517
8.5716,33264
8.57733,32989
8.58305,32377
8.58877,32422
8.5945,31719
8.60022,32023
8.60593,32643
8.61167,31602
8.61738,35044
8.6231,33830
8.62883,33750
8.63455,32729
8.64027,33364
8.646,33254
8.65172,32458
8.65743,32054
8.66317,33225
8.66888,32660
8.6746,31402
8.68033,31234
8.68605,33253
8.69177,32435
8.69748,32121
8.70322,34131
8.70893,34290
8.71465,32236
8.72038,32934
8.7261,31751
8.73182,33009
8.73755,31736
8.74327,31240
8.74898,32889
8.75472,32228
8.76043,33729
8.76615,34305
8.77188,34045
8.7776,31436
8.78332,33393
8.78905,31762
8.79477,32127
8.80048,33675
8.80622,35022
8.81193,31014
8.81765,31951
8.82337,31531
8.8291,31767
8.83482,31924
8.84053,32017
8.84627,31742
8.85198,32878
8.8577,33164
8.86343,32762
8.86915,33358
8.87487,33396
8.8806,32350
8.88632,33064
8.89203,33415
8.89777,34678
8.90348,32791
8.9092,31695
8.91493,34053
8.92065,32269
8.92637,31144
8.9321,32703
8.93782,31604
8.94353,33469
8.94925,31547
8.95498,32919
8.9607,34900
8.96642,32809
8.97215,34321
8.97787,35548
8.98358,34664
8.98932,33692
8.99503,34243
9.00075,34912
9.00648,30963
9.0122,32535
9.01792,34280
9.02365,32487
9.02937,33200
9.03508,32722
9.04082,33037
9.04653,34992
9.05225,34722
9.05798,32165
9.0637,33011
9.06942,32252
9.07513,33839
9.08087,32796
9.08658,34943
9.0923,32742
9.09803,33969
9.10375,33783
9.10947,32309
9.1152,31880
9.12092,31868
9.12663,31119
9.13237,33310
9.13808,32603
9.1438,33107
9.14953,35404
9.15525,35784
9.16097,37289
9.1667,40019
9.17242,38644
9.17813,37240
9.18387,36766
9.18958,35618
9.1953,36267
9.20102,34275
9.20675,34583
9.21247,36441
9.21818,35166
9.22392,34714
9.22963,32149
9.23535,32661
9.24108,36250
9.2468,32506
9.25252,33138
9.25825,35997
9.26397,32368
9.26968,33822
9.27542,35184
9.28113,34053
9.28685,31958
9.29258,35783
9.2983,33948
9.30402,34899
9.30975,31859
9.31547,33493
9.32118,33769
9.3269,33537
9.33263,33094
9.33835,34240
9.34407,34650
9.3498,34509
9.35552,33500
9.36123,32361
9.36697,33449
9.37268,34649
9.3784,34957
9.38413,35295
9.38985,33601
9.39557,34415
9.4013,35437
9.40702,31764
9.41273,33717
9.41847,33089
9.42418,33301
9.4299,33937
9.43563,34510
9.44135,36176
9.44707,35366
9.45278,33138
9.45852,34814
9.46423,34589
9.46995,34190
9.47568,33298
9.4814,31968
9.48712,33755
9.49285,33786
9.49857,34370
9.50428,33306
9.51002,32947
9.51573,34160
9.52145,34752
9.52718,33951
9.5329,33034
9.53862,34182
9.54435,34561
9.55007,33045
9.55578,34624
9.56152,37786
9.56723,35846
9.57295,36903
9.57867,36304
9.5844,35860
9.59012,35469
9.59583,36334
9.60157,36158
9.60728,37372
9.613,36394
9.61873,34468
9.62445,36760
9.63017,35897
9.6359,35889
9.64162,35920
9.64733,37601
9.65307,38594
9.65878,34850
9.6645,35481
9.67023,38125
9.67595,36484
9.68167,35696
9.6874,36184
9.69312,36796
9.69883,39213
9.70455,36632
9.71028,37687
9.716,44302
9.72172,54176
9.72745,60377
9.73317,63890
9.73888,62626
9.74462,59345
9.75033,56773
9.75605,58869
9.76178,60685
9.7675,63228
9.77322,63266
9.77895,61934
9.78467,61407
9.79038,60871
9.79612,59754
9.80183,56694
9.80755,53757
9.81328,51961
9.819,51297
9.82472,47717
9.83043,50759
9.83617,49315
9.84188,44792
9.8476,46307
9.85333,45902
9.85905,44950
9.86477,46042
9.8705,44731
9.87622,44151
9.88193,42131
9.88767,42812
9.89338,42970
9.8991,42507
9.90483,42476
9.91055,44820
9.91627,41212
9.922,42450
9.92772,42322
9.93343,40262
9.93917,40463
9.94488,39257
9.9506,41251
9.95632,41144
9.96205,42530
9.96777,40678
9.97348,42083
9.97922,40718
9.98493,44196
9.99065,41210
9.99638,44062
10.0021,41738
10.0078,42478
10.0136,43904
10.0193,41280
10.025,41920
10.0307,40817
10.0364,43033
10.0422,42701
10.0479,40864
10.0536,39997
10.0593,41390
10.0651,40508
10.0708,41466
10.0765,40505
10.0822,42745
10.0879,40276
10.0937,41903
10.0994,43325
10.1051,42889
10.1108,42599
10.1165,41759
10.1223,43098
10.128,41629
10.1337,41660
10.1394,40698
10.1452,41753
10.1509,38995
10.1566,42104
10.1623,41775
10.168,41940
10.1738,42361
10.1795,41033
10.1852,39792
10.1909,39520
10.1967,40172
10.2024,40868
10.2081,41235
10.2138,41321
10.2195,42006
10.2253,39404
10.231,39710
10.2367,41135
10.2424,40548
10.2482,42390
10.2539,41031
10.2596,40231
10.2653,40781
10.271,40622
10.2768,40133
10.2825,41791
10.2882,41961
10.2939,40127
10.2997,39146
10.3054,41880
10.3111,40267
10.3168,40121
10.3225,38523
10.3283,39087
10.334,38262
10.3397,40337
10.3454,39927
10.3511,38967
10.3569,38998
10.3626,40295
10.3683,38858
10.374,39137
10.3798,38157
10.3855,40539
10.3912,39627
10.3969,37991
10.4026,38174
10.4084,39193
10.4141,37992
10.4198,36994
10.4255,38610
10.4313,38043
10.437,40079
10.4427,40533
10.4484,39078
10.4541,39882
10.4599,37042
10.4656,38430
10.4713,38326
10.477,39479
10.4828,41094
10.4885,38532
10.4942,40035
10.4999,40726
10.5056,40987
10.5114,39415
10.5171,40355
10.5228,39683
10.5285,39857
10.5343,38531
10.54,38611
10.5457,36648
10.5514,39670
10.5571,38374
10.5629,38583
10.5686,37501
10.5743,38755
10.58,42480
10.5857,39184
10.5915,39141
10.5972,38938
10.6029,38773
10.6086,39158
10.6144,40359
10.6201,41805
10.6258,41848
10.6315,43582
10.6372,40304
10.643,40950
10.6487,39777
10.6544,40417
10.6601,38747
10.6659,40295
10.6716,38961
10.6773,39843
10.683,37250
10.6887,38229
10.6945,37574
10.7002,39107
10.7059,38393
10.7116,36470
10.7174,37992
10.7231,34806
10.7288,36204
10.7345,36907
10.7402,36141
10.746,35985
10.7517,34780
10.7574,34795
10.7631,36151
10.7689,35504
10.7746,35134
10.7803,35482
10.786,33862
10.7917,35700
10.7975,36132
10.8032,34949
10.8089,36679
10.8146,35435
10.8204,35410
10.8261,33180
10.8318,35344
10.8375,33795
10.8432,34059
10.849,34130
10.8547,35389
10.8604,33347
10.8661,33982
10.8718,34143
10.8776,33747
10.8833,33663
10.889,34963
10.8947,34951
10.9005,33411
10.9062,35049
10.9119,32977
10.9176,32140
10.9233,32731
10.9291,32850
10.9348,33771
10.9405,34684
10.9462,30568
10.952,33799
10.9577,35155
10.9634,33877
10.9691,33016
10.9748,36192
10.9806,34801
10.9863,33692
10.992,33764
10.9977,34045
11.0035,36670
11.0092,34852
11.0149,34521
11.0206,35004
11.0263,33802
11.0321,34910
11.0378,36259
11.0435,36400
11.0492,37549
11.055,37676
11.0607,36130
11.0664,36155
11.0721,38901
11.0778,43044
11.0836,47789
11.0893,49993
11.095,52290
11.1007,58148
11.1064,59082
11.1122,64483
11.1179,67460
11.1236,67411
11.1293,69540
11.1351,71884
11.1408,68994
11.1465,70781
11.1522,68042
11.1579,69558
11.1637,65744
11.1694,62942
11.1751,62998
11.1808,62636
11.1866,59285
11.1923,60198
11.198,58720
11.2037,57387
11.2094,52905
11.2152,52231
11.2209,53010
11.2266,50595
11.2323,51932
11.2381,51126
11.2438,47570
11.2495,50375
11.2552,47735
11.2609,48215
11.2667,49990
11.2724,49634
11.2781,50232
11.2838,50890
11.2896,49694
11.2953,50854
11.301,49799
11.3067,50626
11.3124,48543
11.3182,48874
11.3239,47087
11.3296,46487
11.3353,47503
11.341,47753
11.3468,45091
11.3525,46304
11.3582,43524
11.3639,42880
11.3697,44141
11.3754,42648
11.3811,41150
11.3868,40892
11.3925,40048
11.3983,39084
11.404,41558
11.4097,39045
11.4154,40401
11.4212,38687
11.4269,40782
11.4326,39753
11.4383,39128
11.444,39247
11.4498,39477
11.4555,36789
11.4612,37414
11.4669,38285
11.4727,37373
11.4784,38968
11.4841,37134
11.4898,36959
11.4955,37195
11.5013,37975
11.507,36445
11.5127,37985
11.5184,35217
11.5242,35688
11.5299,37112
11.5356,36041
11.5413,36549
11.547,33319
11.5528,35593
11.5585,37367
11.5642,34806
11.5699,34234
11.5757,34967
11.5814,34510
11.5871,34279
11.5928,34417
11.5985,36498
11.6043,33427
11.61,33829
11.6157,36163
11.6214,34916
11.6271,35933
11.6329,34965
11.6386,33967
11.6443,34134
11.65,35593
11.6558,35415
11.6615,33755
11.6672,33555
11.6729,34348
11.6786,32584
11.6844,33490
11.6901,34927
11.6958,35494
11.7015,35171
11.7073,33695
11.713,34809
11.7187,32142
11.7244,32579
11.7301,33312
11.7359,35595
11.7416,33437
11.7473,34766
11.753,32556
11.7588,34856
11.7645,32891
11.7702,34062
11.7759,32763
11.7816,34275
11.7874,33412
11.7931,30836
11.7988,32528
11.8045,33260
11.8103,33870
11.816,36503
11.8217,33437
11.8274,35242
11.8331,34461
11.8389,33814
11.8446,35271
11.8503,33760
11.856,34391
11.8617,31861
11.8675,32181
11.8732,33707
11.8789,33996
11.8846,34684
11.8904,34583
11.8961,35574
11.9018,38247
11.9075,39118
11.9132,34678
11.919,33009
11.9247,34722
11.9304,32813
11.9361,35137
11.9419,32295
11.9476,33149
11.9533,34485
11.959,34407
11.9647,31347
11.9705,31849
11.9762,31931
11.9819,32329
11.9876,32821
11.9934,32299
11.9991,33221
12.0048,31383
12.0105,32345
12.0162,34571
12.022,32496
12.0277,34269
12.0334,34468
12.0391,32861
12.0449,33731
12.0506,30617
12.0563,34658
12.062,32362
12.0677,33455
12.0735,33654
12.0792,32379
12.0849,32693
12.0906,34505
12.0963,33133
12.1021,35302
12.1078,33342
12.1135,35506
12.1192,32451
12.125,32417
12.1307,31110
12.1364,31119
12.1421,32840
12.1478,33807
12.1536,34167
12.1593,33630
12.165,32877
12.1707,33341
12.1765,34364
12.1822,34631
12.1879,32256
12.1936,32397
12.1993,33527
12.2051,33992
12.2108,32969
12.2165,31628
12.2222,33612
12.228,32047
12.2337,32402
12.2394,32075
12.2451,32039
12.2508,30915
12.2566,30843
12.2623,32632
12.268,33156
12.2737,31843
12.2795,32400
12.2852,32234
12.2909,34106
12.2966,32558
12.3023,32721
12.3081,33615
12.3138,34210
12.3195,34371
12.3252,32468
12.331,34145
12.3367,33860
12.3424,35145
12.3481,32405
12.3538,33891
12.3596,31924
12.3653,33106
12.371,33936
12.3767,32221
12.3824,33158
12.3882,31588
12.3939,32148
12.3996,33295
12.4053,32580
12.4111,33820
12.4168,32768
12.4225,32838
12.4282,33016
12.4339,31307
12.4397,32166
12.4454,32673
12.4511,31533
12.4568,31607
12.4626,32339
12.4683,34738
12.474,32072
12.4797,34166
12.4854,32000
12.4912,36318
12.4969,33079
12.5026,32193
12.5083,33222
12.5141,33276
12.5198,33627
12.5255,32290
12.5312,33373
12.5369,32420
12.5427,31598
12.5484,32955
12.5541,32437
12.5598,32795
12.5656,33134
12.5713,33039
12.577,33032
12.5827,32464
12.5884,33890
12.5942,35175
12.5999,34566
12.6056,36282
12.6113,32193
12.617,33275
12.6228,32954
12.6285,34869
12.6342,33190
12.6399,34109
12.6457,35517
12.6514,35776
12.6571,33001
12.6628,35240
12.6685,36445
12.6743,34615
12.68,37007
12.6857,33556
12.6914,33666
12.6972,34698
12.7029,36638
12.7086,33578
12.7143,35300
12.72,34412
12.7258,34827
12.7315,35835
12.7372,34608
12.7429,34012
12.7487,33789
12.7544,34913
12.7601,36582
12.7658,35831
12.7715,34854
12.7773,36905
12.783,36147
12.7887,35747
12.7944,36049
12.8002,34900
12.8059,35953
12.8116,37348
12.8173,36947
12.823,34564
12.8288,36614
12.8345,35337
12.8402,37474
12.8459,38352
12.8517,36762
12.8574,36816
12.8631,36847
12.8688,38982
12.8745,37979
12.8803,36103
12.886,37661
12.8917,35880
12.8974,37136
12.9031,36799
12.9089,38194
12.9146,36909
12.9203,37722
12.926,38110
12.9318,34804
12.9375,35834
12.9432,36632
12.9489,38001
12.9546,34116
12.9604,36069
12.9661,36946
12.9718,33784
12.9775,36079
12.9833,35568
12.989,35852
12.9947,35380
13.0004,37239
13.0061,35780
13.0119,36622
13.0176,38324
13.0233,37570
13.029,37899
13.0348,39610
13.0405,37724
13.0462,38393
13.0519,36607
13.0576,37357
13.0634,36139
13.0691,37522
13.0748,38605
13.0805,38156
13.0863,38824
13.092,40462
13.0977,39674
13.1034,40823
13.1091,37239
13.1149,36525
13.1206,39200
13.1263,41161
13.132,37966
13.1377,37887
13.1435,37714
13.1492,40468
13.1549,38965
13.1606,39692
13.1664,39465
13.1721,40149
13.1778,41306
13.1835,42701
13.1892,43673
13.195,44518
13.2007,43791
13.2064,45099
13.2121,43656
13.2179,41773
13.2236,43675
13.2293,42677
13.235,41130
13.2407,42544
13.2465,41764
13.2522,40083
13.2579,42552
13.2636,42961
13.2694,42788
13.2751,42767
13.2808,42671
13.2865,43950
13.2922,42623
13.298,43063
13.3037,44487
13.3094,45293
13.3151,43997
13.3209,44957
13.3266,45331
13.3323,44932
13.338,45877
13.3437,47278
13.3495,45424
13.3552,47134
13.3609,46489
13.3666,48296
13.3723,48010
13.3781,49164
13.3838,48899
13.3895,48699
13.3952,49288
13.401,47444
13.4067,46095
13.4124,48169
13.4181,49672
13.4238,51179
13.4296,49268
13.4353,49434
13.441,49146
13.4467,51372
13.4525,50261
13.4582,51582
13.4639,47260
13.4696,50131
13.4753,51383
13.4811,51627
13.4868,51375
13.4925,51918
13.4982,50153
13.504,51173
13.5097,51507
13.5154,53828
13.5211,53734
13.5268,53790
13.5326,53586
13.5383,53252
13.544,55060
13.5497,54211
13.5555,52990
13.5612,58635
13.5669,54782
13.5726,55699
13.5783,57154
13.5841,54001
13.5898,55717
13.5955,57217
13.6012,55516
13.607,55513
13.6127,53664
13.6184,55130
13.6241,57098
13.6298,59345
13.6356,55572
13.6413,56380
13.647,59323
13.6527,56091
13.6584,56344
13.6642,58742
13.6699,56991
13.6756,59377
13.6813,60384
13.6871,60782
13.6928,60932
13.6985,58973
13.7042,56303
13.7099,60009
13.7157,57221
13.7214,59626
13.7271,59302
13.7328,62763
13.7386,63599
13.7443,61323
13.75,63062
13.7557,61977
13.7614,67001
13.7672,62585
13.7729,63353
13.7786,67482
13.7843,68205
13.7901,72177
13.7958,70937
13.8015,71979
13.8072,68485
13.8129,69118
13.8187,68980
13.8244,66565
13.8301,70030
13.8358,65452
13.8416,70653
13.8473,69319
13.853,69651
13.8587,68975
13.8644,69502
13.8702,71266
13.8759,72255
13.8816,76561
13.8873,78396
13.893,85468
13.8988,83583
13.9045,80004
13.9102,80364
13.9159,79844
13.9217,79324
13.9274,79984
13.9331,77629
13.9388,80464
13.9445,75228
13.9503,78353
13.956,79932
13.9617,81750
13.9674,78242
13.9732,78181
13.9789,78002
13.9846,80527
13.9903,80968
13.996,84103
14.0018,83342
14.0075,85140
14.0132,85373
14.0189,83459
14.0247,82482
14.0304,82122
14.0361,85794
14.0418,83264
14.0475,84807
14.0533,86006
14.059,82630
14.0647,84480
14.0704,87355
14.0762,84276
14.0819,87770
14.0876,86999
14.0933,90900
14.099,95872
14.1048,91838
14.1105,97323
14.1162,96946
14.1219,97148
14.1276,93548
14.1334,93304
14.1391,91135
14.1448,94495
14.1505,95523
14.1563,91970
14.162,93392
14.1677,97294
14.1734,91273
14.1791,92658
14.1849,96299
14.1906,96630
14.1963,97155
14.202,97208
14.2078,97326
14.2135,97826
14.2192,97090
14.2249,96801
14.2306,101077
14.2364,100555
14.2421,98866
14.2478,100064
14.2535,102860
14.2593,98270
14.265,100878
14.2707,99703
14.2764,103585
14.2821,105390
14.2879,102519
14.2936,103569
14.2993,105393
14.305,101712
14.3108,105646
14.3165,99285
14.3222,105285
14.3279,105172
14.3336,103880
14.3394,106365
14.3451,110569
14.3508,106264
14.3565,107464
14.3623,107474
14.368,107820
14.3737,109054
14.3794,109107
14.3851,106568
14.3909,112207
14.3966,114736
14.4023,113590
14.408,112634
14.4137,112710
14.4195,112149
14.4252,115571
14.4309,116642
14.4366,115520
14.4424,113891
14.4481,112816
14.4538,112971
14.4595,117139
14.4652,113862
14.471,117701
14.4767,114874
14.4824,114714
14.4881,121731
14.4939,116413
14.4996,118269
14.5053,117973
14.511,119448
14.5167,123845
14.5225,123027
14.5282,120708
14.5339,121967
14.5396,124737
14.5454,125449
14.5511,125828
14.5568,127492
14.5625,127912
14.5682,129481
14.574,129284
14.5797,131042
14.5854,128208
14.5911,128442
14.5969,131061
14.6026,130038
14.6083,135034
14.614,130406
14.6197,136859
14.6255,132119
14.6312,134581
14.6369,133085
14.6426,134796
14.6483,135878
14.6541,138842
14.6598,136205
14.6655,138765
14.6712,138606
14.677,138912
14.6827,143318
14.6884,139902
14.6941,141955
14.6998,144528
14.7056,143151
14.7113,144378
14.717,143756
14.7227,142069
14.7285,143986
14.7342,148523
14.7399,147117
14.7456,145145
14.7513,149267
14.7571,148826
14.7628,145848
14.7685,147055
14.7742,145012
14.78,147875
14.7857,147636
14.7914,149499
14.7971,152565
14.8028,148631
14.8086,151893
14.8143,152256
14.82,154808
14.8257,154763
14.8315,152780
14.8372,153652
14.8429,156468
14.8486,155147
14.8543,158631
14.8601,157693
14.8658,161026
14.8715,166300
14.8772,162278
14.8829,164694
14.8887,158087
14.8944,160354
14.9001,164554
14.9058,162872
14.9116,167196
14.9173,163117
14.923,166991
14.9287,168053
14.9344,166279
14.9402,169224
14.9459,169694
14.9516,169757
14.9573,172961
14.9631,170376
14.9688,169840
14.9745,179600
14.9802,173297
14.9859,175654
14.9917,174174
14.9974,176991
15.0031,176152
15.0088,178242
15.0146,182849
15.0203,181766
15.026,179795
15.0317,188106
15.0374,189493
15.0432,183739
15.0489,188841
15.0546,187150
15.0603,188726
15.0661,188989
15.0718,189417
15.0775,189941
15.0832,191916
15.0889,195441
15.0947,194281
15.1004,191634
15.1061,195431
15.1118,197692
15.1176,192728
15.1233,194700
15.129,194845
15.1347,197442
15.1404,200545
15.1462,195163
15.1519,199416
15.1576,202888
15.1633,205798
15.169,201896
15.1748,202414
15.1805,202486
15.1862,206804
15.1919,208081
15.1977,200204
15.2034,210233
15.2091,207554
15.2148,210677
15.2205,212536
15.2263,209127
15.232,210409
15.2377,212602
15.2434,211012
15.2492,212482
15.2549,210935
15.2606,220899
15.2663,219030
15.272,216363
15.2778,221269
15.2835,225662
15.2892,230712
15.2949,233329
15.3007,232176
15.3064,233727
15.3121,232956
15.3178,228293
15.3235,229997
15.3293,229404
15.335,232144
15.3407,230744
15.3464,231179
15.3522,231313
15.3579,235193
15.3636,237428
15.3693,239845
15.375,239006
15.3808,241337
15.3865,245595
15.3922,241496
15.3979,242176
15.4036,239186
15.4094,247494
15.4151,251226
15.4208,245463
15.4265,246461
15.4323,246858
15.438,246868
15.4437,252528
15.4494,249975
15.4551,252393
15.4609,257486
15.4666,253533
15.4723,255735
15.478,258935
15.4838,263733
15.4895,263075
15.4952,262093
15.5009,263649
15.5066,266612
15.5124,263327
15.5181,259042
15.5238,263644
15.5295,271706
15.5353,272079
15.541,270095
15.5467,271029
15.5524,267249
15.5581,269145
15.5639,274997
15.5696,275603
15.5753,273425
15.581,274098
15.5868,278804
15.5925,275574
15.5982,278054
15.6039,283773
15.6096,279461
15.6154,279646
15.6211,282766
15.6268,290052
15.6325,281911
15.6382,287828
15.644,287139
15.6497,291231
15.6554,292627
15.6611,289653
15.6669,285134
15.6726,293162
15.6783,293445
15.684,298497
15.6897,299094
15.6955,306248
15.7012,299994
15.7069,307283
15.7126,303962
15.7184,302583
15.7241,309901
15.7298,309852
15.7355,313463
15.7412,310297
15.747,315056
15.7527,310623
15.7584,317171
15.7641,319567
15.7699,317500
15.7756,314698
15.7813,311569
15.787,320029
15.7927,316907
15.7985,320407
15.8042,325057
15.8099,329537
15.8156,328727
15.8214,325369
15.8271,333322
15.8328,333938
15.8385,334512
15.8442,338683
15.85,341620
15.8557,337153
15.8614,334954
15.8671,342599
15.8729,340964
15.8786,342097
15.8843,342078
15.89,346868
15.8957,345407
15.9015,357850
15.9072,360283
15.9129,348058
15.9186,360106
15.9243,362283
15.9301,363620
15.9358,364002
15.9415,359417
15.9472,366528
15.953,364404
15.9587,367556
15.9644,367680
15.9701,373034
15.9758,375565
15.9816,369432
15.9873,374911
15.993,380665
15.9987,380573
16.0044,385409
16.0102,385401
16.0159,385614
16.0216,386018
16.0273,387217
16.033,386945
16.0388,386653
16.0445,386162
16.0502,384020
16.0559,391794
16.0617,402892
16.0674,391881
16.0731,396684
16.0788,398017
16.0846,397602
16.0903,398840
16.096,392450
16.1017,398789
16.1075,401752
16.1132,398817
16.1189,404155
16.1246,407602
16.1303,405468
16.1361,404777
16.1418,403978
16.1475,404723
16.1532,402380
16.1589,402352
16.1647,415353
16.1704,409407
16.1761,415487
16.1818,418895
16.1876,426961
16.1933,417641
16.199,419557
16.2047,425879
16.2104,421567
16.2162,427114
16.2219,424300
16.2276,431524
16.2333,426109
16.239,435037
16.2448,428578
16.2505,436268
16.2562,445384
16.2619,441170
16.2677,442879
16.2734,441907
16.2791,447904
16.2848,454879
16.2906,455123
16.2963,460605
16.302,453498
16.3077,462171
16.3134,467508
16.3192,461555
16.3249,469407
16.3306,467757
16.3363,473358
16.3421,472256
16.3478,470959
16.3535,477040
16.3592,474216
16.3649,483339
16.3707,477453
16.3764,483439
16.3821,488698
16.3878,492959
16.3935,494750
16.3993,503920
16.405,507785
16.4107,516203
16.4164,507597
16.4221,507949
16.4279,513366
16.4336,508611
16.4393,508328
16.445,520058
16.4508,513439
16.4565,515010
16.4622,522315
16.4679,528378
16.4736,530770
16.4794,525684
16.4851,528081
16.4908,533468
16.4965,533530
16.5023,541131
16.508,537106
16.5137,542116
16.5194,538726
16.5252,540431
16.5309,538247
16.5366,542431
16.5423,547718
16.548,552322
16.5538,546728
16.5595,556341
16.5652,550260
16.5709,555087
16.5767,557631
16.5824,540705
16.5881,553736
16.5938,560593
16.5995,555381
16.6053,562355
16.611,564854
16.6167,567866
16.6224,550833
16.6282,559447
16.6339,566635
16.6396,561242
16.6453,571352
16.651,576136
16.6567,573340
16.6625,571961
16.6682,583336
16.6739,588247
16.6796,588904
16.6854,587312
16.6911,581399
16.6968,582342
16.7025,585360
16.7083,596522
16.714,593881
16.7197,609535
16.7254,602376
16.7311,610501
16.7369,609679
16.7426,619296
16.7483,622119
16.754,616719
16.7598,620967
16.7655,629054
16.7712,625687
16.7769,636015
16.7826,626687
16.7884,639562
16.7941,640051
16.7998,648308
16.8055,651235
16.8113,644099
16.817,658873
16.8227,664990
16.8284,655787
16.8341,674243
16.8398,673515
16.8456,673282
16.8513,670704
16.857,684433
16.8627,679455
16.8685,694788
16.8742,691091
16.8799,686158
16.8856,685235
16.8913,692011
16.8971,697585
16.9028,707177
16.9085,712429
16.9142,713609
16.92,719346
16.9257,725279
16.9314,722333
16.9371,724917
16.9429,733364
16.9486,729511
16.9543,739859
16.96,742480
16.9657,747043
16.9715,736488
16.9772,753926
16.9829,741611
16.9886,742553
16.9944,751549
17.0001,767881
17.0058,756806
17.0115,772062
17.0172,769696
17.023,781311
17.0287,778072
17.0344,786200
17.0401,787698
17.0459,786173
17.0516,779890
17.0573,785163
17.063,782058
17.0687,796324
17.0744,785645
17.0802,795042
17.0859,791182
17.0916,794707
17.0973,797164
17.1031,789418
17.1088,796230
17.1145,808567
17.1202,792773
17.126,813044
17.1317,819060
17.1374,816868
17.1431,818876
17.1488,829611
17.1546,826155
17.1603,828175
17.166,841788
17.1717,837111
17.1775,832930
17.1832,844219
17.1889,844268
17.1946,853035
17.2003,843720
17.2061,850120
17.2118,849880
17.2175,870426
17.2232,868540
17.229,867567
17.2347,873499
17.2404,880106
17.2461,882843
17.2518,882176
17.2576,892963
17.2633,886280
17.269,892004
17.2747,897181
17.2804,898892
17.2862,899217
17.2919,907639
17.2976,901669
17.3033,907268
17.309,901409
17.3148,900083
17.3205,921534
17.3262,919585
17.3319,916398
17.3377,932127
17.3434,931963
17.3491,948122
17.3548,930259
17.3606,946986
17.3663,953862
17.372,958744
17.3777,969594
17.3835,976271
17.3892,976423
17.3949,974772
17.4006,974658
17.4063,985746
17.4121,980400
17.4178,987920
17.4235,1006044
17.4292,1018883
17.4349,1018672
17.4407,1022925
17.4464,1021936
17.4521,1019081
17.4578,1018145
17.4636,1019671
17.4693,1034944
17.475,1030592
17.4807,1025397
17.4864,1047747
17.4922,1050563
17.4979,1061920
17.5036,1062930
17.5093,1065598
17.5151,1066880
17.5208,1058255
17.5265,1063934
17.5322,1071770
17.5379,1078958
17.5437,1068044
17.5494,1084919
17.5551,1074141
17.5608,1083853
17.5665,1086968
17.5723,1109259
17.578,1104798
17.5837,1110415
17.5894,1115891
17.5952,1114379
17.6009,1118246
17.6066,1101107
17.6123,1115992
17.6181,1119318
17.6238,1127866
17.6295,1138946
17.6352,1137095
17.6409,1139864
17.6467,1143190
17.6524,1151942
17.6581,1151754
17.6638,1145229
17.6695,1136886
17.6753,1150182
17.681,1137920
17.6867,1151005
17.6924,1136909
17.6982,1136592
17.7039,1134752
17.7096,1132345
17.7153,1143172
17.721,1133761
17.7268,1139846
17.7325,1137117
17.7382,1157935
17.7439,1138980
17.7497,1153177
17.7554,1147336
17.7611,1149083
17.7668,1136229
17.7725,1145630
17.7783,1144412
17.784,1154883
17.7897,1148965
17.7954,1139926
17.8012,1142063
17.8069,1156139
17.8126,1157512
17.8183,1152231
17.824,1163752
17.8298,1166017
17.8355,1146163
17.8412,1143806
17.8469,1158663
17.8527,1155069
17.8584,1161180
17.8641,1145884
17.8698,1147712
17.8755,1155271
17.8813,1153708
17.887,1150235
17.8927,1155716
17.8984,1157752
17.9042,1160275
17.9099,1164512
17.9156,1163225
17.9213,1169646
17.927,1166783
17.9328,1166100
17.9385,1187029
17.9442,1179352
17.9499,1179622
17.9556,1186129
17.9614,1198751
17.9671,1172825
17.9728,1181809
17.9785,1187037
17.9842,1184596
17.99,1179710
17.9957,1183089
18.0014,1183204
18.0071,1179176
18.0129,1188395
18.0186,1206021
18.0243,1198887
18.03,1188372
18.0358,1203386
18.0415,1201771
18.0472,1206416
18.0529,1209329
18.0586,1204624
18.0644,1215102
18.0701,1216762
18.0758,1205767
18.0815,1201251
18.0873,1209791
18.093,1210076
18.0987,1211448
18.1044,1209984
18.1101,1230484
18.1159,1229625
18.1216,1216644
18.1273,1224134
18.133,1221901
18.1388,1212264
18.1445,1207429
18.1502,1198587
18.1559,1204495
18.1616,1207119
18.1674,1227025
18.1731,1219084
18.1788,1236079
18.1845,1224305
18.1902,1243297
18.196,1244008
18.2017,1248639
18.2074,1229919
18.2131,1241800
18.2189,1225445
18.2246,1214849
18.2303,1214871
18.236,1225135
18.2417,1221112
18.2475,1224353
18.2532,1223585
18.2589,1219490
18.2646,1228626
18.2704,1220580
18.2761,1228361
18.2818,1231605
18.2875,1237812
18.2932,1222833
18.299,1219254
18.3047,1227879
18.3104,1221297
18.3161,1230579
18.3219,1226543
18.3276,1215872
18.3333,1224183
18.339,1233333
18.3447,1235807
18.3505,1231024
18.3562,1228276
18.3619,1245198
18.3676,1256790
18.3734,1232507
18.3791,1252202
18.3848,1248511
18.3905,1246838
18.3962,1249081
18.4019,1248251
18.4077,1259981
18.4134,1254205
18.4191,1247104
18.4248,1255613
18.4306,1255019
18.4363,1242540
18.442,1255367
18.4477,1244857
18.4535,1237091
18.4592,1240687
18.4649,1247319
18.4706,1240237
18.4763,1233933
18.4821,1244036
18.4878,1243443
18.4935,1246127
18.4992,1234704
18.505,1247121
18.5107,1258850
18.5164,1261063
18.5221,1261844
18.5278,1254063
18.5336,1265998
18.5393,1280440
18.545,1268354
18.5507,1260182
18.5565,1247378
18.5622,1267378
18.5679,1241615
18.5736,1249879
18.5793,1248415
18.5851,1238373
18.5908,1244155
18.5965,1241886
18.6022,1233902
18.608,1246594
18.6137,1250450
18.6194,1251980
18.6251,1227903
18.6308,1237632
18.6366,1246028
18.6423,1253019
18.648,1244471
18.6537,1244789
18.6595,1256269
18.6652,1243280
18.6709,1236269
18.6766,1240672
18.6823,1219116
18.6881,1241198
18.6938,1246517
18.6995,1262467
18.7052,1270113
18.7109,1259731
18.7167,1253480
18.7224,1261324
18.7281,1278292
18.7338,1262677
18.7396,1254337
18.7453,1267714
18.751,1252762
18.7567,1255502
18.7624,1266602
18.7682,1253974
18.7739,1264348
18.7796,1259504
18.7853,1267972
18.7911,1266861
18.7968,1266991
18.8025,1287743
18.8082,1279398
18.8139,1283072
18.8196,1272858
18.8254,1281016
18.8311,1279207
18.8368,1279335
18.8425,1285286
18.8483,1281396
18.854,1287755
18.8597,1290870
18.8654,1273753
18.8712,1279110
18.8769,1281394
18.8826,1281363
18.8883,1292816
18.8941,1281743
18.8998,1288640
18.9055,1283618
18.9112,1280034
18.9169,1282651
18.9227,1273479
18.9284,1277922
18.9341,1270852
18.9398,1264880
18.9455,1256422
18.9513,1271720
18.957,1268278
18.9627,1261087
18.9684,1274705
18.9742,1267399
18.9799,1246362
18.9856,1257466
18.9913,1248127
18.997,1256351
19.0028,1259119
19.0085,1255998
19.0142,1267030
19.0199,1252425
19.0257,1260345
19.0314,1264359
19.0371,1248092
19.0428,1240563
19.0485,1246208
19.0543,1242015
19.06,1230383
19.0657,1241532
19.0714,1241567
19.0772,1251879
19.0829,1259723
19.0886,1247624
19.0943,1255947
19.1,1256606
19.1058,1255714
19.1115,1251450
19.1172,1249054
19.1229,1236162
19.1287,1241135
19.1344,1251759
19.1401,1259595
19.1458,1249802
19.1515,1268925
19.1573,1257815
19.163,1253224
19.1687,1264634
19.1744,1262340
19.1801,1257533
19.1859,1255262
19.1916,1265459
19.1973,1269469
19.203,1261270
19.2088,1266415
19.2145,1260578
19.2202,1274195
19.2259,1266669
19.2316,1262108
19.2374,1265279
19.2431,1257398
19.2488,1254036
19.2545,1243232
19.2602,1244387
19.266,1263130
19.2717,1261057
19.2774,1251003
19.2831,1248551
19.2889,1268030
19.2946,1261551
19.3003,1248663
19.306,1255254
19.3118,1240518
19.3175,1239681
19.3232,1245145
19.3289,1242648
19.3346,1232837
19.3404,1243922
19.3461,1246301
19.3518,1239415
19.3575,1230736
19.3633,1224642
19.369,1244569
19.3747,1225159
19.3804,1230643
19.3861,1234035
19.3919,1214720
19.3976,1224275
19.4033,1235934
19.409,1240674
19.4148,1242684
19.4205,1246981
19.4262,1239403
19.4319,1237269
19.4376,1246164
19.4434,1236574
19.4491,1237225
19.4548,1229975
19.4605,1227013
19.4662,1212947
19.472,1230828
19.4777,1228528
19.4834,1230707
19.4891,1221743
19.4949,1227058
19.5006,1214856
19.5063,1209769
19.512,1217064
19.5177,1203088
19.5235,1217396
19.5292,1215138
19.5349,1211979
19.5406,1218204
19.5464,1215118
19.5521,1208009
19.5578,1221018
19.5635,1214715
19.5692,1220389
19.575,1223338
19.5807,1214459
19.5864,1221108
19.5921,1219957
19.5979,1222175
19.6036,1219043
19.6093,1216428
19.615,1192572
19.6207,1205914
19.6265,1187372
19.6322,1193343
19.6379,1197029
19.6436,1186544
19.6494,1205320
19.6551,1205704
19.6608,1207418
19.6665,1220592
19.6722,1213345
19.678,1189079
19.6837,1204935
19.6894,1213832
19.6951,1221046
19.7008,1221176
19.7066,1217462
19.7123,1225893
19.718,1221695
19.7237,1236131
19.7295,1221931
19.7352,1230571
19.7409,1226504
19.7466,1233345
19.7523,1236630
19.7581,1231804
19.7638,1238643
19.7695,1234931
19.7752,1243378
19.781,1241213
19.7867,1229645
19.7924,1242450
19.7981,1224708
19.8038,1244218
19.8096,1251958
19.8153,1247767
19.821,1242373
19.8267,1240345
19.8325,1229412
19.8382,1249064
19.8439,1235262
19.8496,1244028
19.8553,1248497
19.8611,1259868
19.8668,1243208
19.8725,1248911
19.8782,1245640
19.884,1238465
19.8897,1232897
19.8954,1242692
19.9011,1232096
19.9068,1221649
19.9126,1229971
19.9183,1218833
19.924,1243262
19.9297,1228667
19.9354,1236185
19.9412,1248757
19.9469,1247777
19.9526,1245868
19.9583,1251430
19.9641,1243177
19.9698,1241287
19.9755,1239737
19.9812,1229587
19.9869,1238243
19.9927,1246016
19.9984,1242614
20.0041,1229635
20.0098,1244188
20.0156,1225590
20.0213,1230557
20.027,1230578
20.0327,1224468
20.0384,1222987
20.0442,1221544
20.0499,1214782
20.0556,1210673
20.0613,1218242
20.0671,1222371
20.0728,1218949
20.0785,1218853
20.0842,1217788
20.0899,1232996
20.0957,1218667
20.1014,1217544
20.1071,1226750
20.1128,1211723
20.1186,1217041
20.1243,1234965
20.13,1230211
20.1357,1228179
20.1414,1227076
20.1472,1233082
20.1529,1230843
20.1586,1253418
20.1643,1230804
20.1701,1246804
20.1758,1230309
20.1815,1233665
20.1872,1221163
20.1929,1235363
20.1987,1237420
20.2044,1224653
20.2101,1243071
20.2158,1223276
20.2215,1233747
20.2273,1222552
20.233,1224111
20.2387,1226469
20.2444,1222139
20.2502,1228102
20.2559,1230118
20.2616,1226569
20.2673,1217873
20.273,1219938
20.2788,1207908
20.2845,1210811
20.2902,1209709
20.2959,1211995
20.3017,1211280
20.3074,1218041
20.3131,1221220
20.3188,1202416
20.3245,1197356
20.3302,1211921
20.336,1216841
20.3417,1213098
20.3474,1222032
20.3531,1222347
20.3589,1220931
20.3646,1214390
20.3703,1207675
20.376,1209852
20.3818,1202225
20.3875,1199112
20.3932,1210646
20.3989,1211704
20.4047,1228589
20.4104,1216087
20.4161,1207216
20.4218,1220925
20.4275,1218915
20.4333,1214970
20.439,1222491
20.4447,1207380
20.4504,1225435
20.4561,1229197
20.4619,1224435
20.4676,1223937
20.4733,1210883
20.479,1207277
20.4848,1204318
20.4905,1215059
