C:\MSDCHEM\1\DATA\MANDKHAI\20180626 MTH_C12COA\SLR_WT_NltAB_old_1.d 27 Jun 18  11:38 am
Start of data points
4.09247,3681
4.0982,4085
4.10392,3714
4.10963,3582
4.11537,3178
4.12108,3741
4.1268,3203
4.13252,3206
4.13825,3326
4.14397,3589
4.14968,3276
4.15542,3641
4.16113,3341
4.16685,3444
4.17258,3131
4.1783,3005
4.18402,3180
4.18975,2998
4.19547,2647
4.20118,2828
4.20692,2577
4.21263,2514
4.21835,2739
4.22408,2611
4.2298,3079
4.23552,2667
4.24125,2399
4.24697,2642
4.25268,2152
4.2584,2301
4.26413,2276
4.26985,2288
4.27557,2185
4.2813,2038
4.28702,2193
4.29273,2105
4.29847,1777
4.30418,2424
4.3099,1922
4.31563,1788
4.32135,1895
4.32707,1850
4.3328,2115
4.33852,2005
4.34423,1639
4.34997,1677
4.35568,1731
4.3614,1578
4.36713,1723
4.37285,1844
4.37857,1608
4.38428,1678
4.39002,1492
4.39573,1789
4.40145,1521
4.40718,1423
4.4129,1363
4.41862,1474
4.42435,1313
4.43007,1378
4.43578,1518
4.44152,1552
4.44723,1563
4.45295,1351
4.45868,1387
4.4644,1400
4.47012,1520
4.47585,1282
4.48157,1337
4.48728,1314
4.49302,1340
4.49873,1342
4.50445,1447
4.51017,1494
4.5159,880
4.52162,1442
4.52733,983
4.53307,1449
4.53878,1239
4.5445,1249
4.55023,1286
4.55595,1613
4.56167,1034
4.5674,1642
4.57312,1114
4.57883,1152
4.58457,1011
4.59028,1007
4.596,1213
4.60173,892
4.60745,960
4.61317,1083
4.6189,931
4.62462,1153
4.63033,947
4.63605,1201
4.64178,926
4.6475,1032
4.65322,1152
4.65895,928
4.66467,712
4.67038,798
4.67612,1042
4.68183,879
4.68755,1087
4.69328,841
4.699,943
4.70472,869
4.71045,888
4.71617,956
4.72188,793
4.72762,1096
4.73333,820
4.73905,995
4.74478,934
4.7505,1115
4.75622,1041
4.76193,612
4.76767,880
4.77338,818
4.7791,597
4.78483,970
4.79055,639
4.79627,1309
4.802,816
4.80772,441
4.81343,616
4.81917,871
4.82488,794
4.8306,961
4.83633,541
4.84205,639
4.84777,664
4.8535,888
4.85922,802
4.86493,565
4.87067,618
4.87638,682
4.8821,769
4.88782,909
4.89355,724
4.89927,614
4.90498,589
4.91072,864
4.91643,565
4.92215,594
4.92788,848
4.9336,605
4.93932,958
4.94505,862
4.95077,779
4.95648,563
4.96222,781
4.96793,678
4.97365,546
4.97938,682
4.9851,803
4.99082,532
4.99655,853
5.00227,540
5.00798,529
5.0137,596
5.01943,469
5.02515,767
5.03087,781
5.0366,679
5.04232,489
5.04803,643
5.05377,755
5.05948,873
5.0652,480
5.07093,625
5.07665,833
5.08237,619
5.0881,542
5.09382,573
5.09953,531
5.10527,643
5.11098,443
5.1167,454
5.12243,558
5.12815,804
5.13387,702
5.13958,592
5.14532,661
5.15103,521
5.15675,620
5.16248,466
5.1682,448
5.17392,686
5.17965,642
5.18537,706
5.19108,448
5.19682,652
5.20253,722
5.20825,643
5.21398,742
5.2197,558
5.22542,627
5.23115,580
5.23687,415
5.24258,430
5.24832,523
5.25403,490
5.25975,470
5.26547,701
5.2712,391
5.27692,677
5.28263,447
5.28837,596
5.29408,365
5.2998,460
5.30553,487
5.31125,449
5.31697,557
5.3227,635
5.32842,504
5.33413,615
5.33987,557
5.34558,510
5.3513,364
5.35703,649
5.36275,537
5.36847,655
5.3742,311
5.37992,620
5.38563,612
5.39135,325
5.39708,594
5.4028,590
5.40852,563
5.41425,318
5.41997,461
5.42568,347
5.43142,612
5.43713,618
5.44285,668
5.44858,580
5.4543,295
5.46002,352
5.46575,335
5.47147,561
5.47718,709
5.48292,543
5.48863,391
5.49435,375
5.50008,443
5.5058,820
5.51152,395
5.51723,480
5.52297,396
5.52868,571
5.5344,520
5.54013,648
5.54585,272
5.55157,632
5.5573,442
5.56302,333
5.56873,610
5.57447,370
5.58018,353
5.5859,326
5.59163,423
5.59735,349
5.60307,359
5.6088,302
5.61452,562
5.62023,390
5.62597,274
5.63168,468
5.6374,367
5.64312,337
5.64885,301
5.65457,316
5.66028,514
5.66602,317
5.67173,487
5.67745,541
5.68318,489
5.6889,370
5.69462,321
5.70035,531
5.70607,525
5.71178,354
5.71752,281
5.72323,332
5.72895,312
5.73468,367
5.7404,309
5.74612,340
5.75185,521
5.75757,319
5.76328,513
5.769,203
5.77473,359
5.78045,356
5.78617,395
5.7919,253
5.79762,482
5.80333,377
5.80907,267
5.81478,374
5.8205,289
5.82623,530
5.83195,237
5.83767,628
5.8434,278
5.84912,545
5.85483,221
5.86057,323
5.86628,283
5.872,242
5.87773,300
5.88345,487
5.88917,320
5.89488,481
5.90062,417
5.90633,314
5.91205,217
5.91778,362
5.9235,328
5.92922,246
5.93495,426
5.94067,511
5.94638,351
5.95212,270
5.95783,418
5.96355,438
5.96928,444
5.975,262
5.98072,193
5.98645,262
5.99217,446
5.99788,287
6.00362,218
6.00933,265
6.01505,407
6.02077,293
6.0265,276
6.03222,421
6.03793,255
6.04367,280
6.04938,470
6.0551,318
6.06083,258
6.06655,432
6.07227,415
6.078,266
6.08372,407
6.08943,300
6.09517,277
6.10088,332
6.1066,290
6.11233,265
6.11805,255
6.12377,477
6.1295,389
6.13522,248
6.14093,306
6.14665,231
6.15238,279
6.1581,242
6.16382,315
6.16955,493
6.17527,310
6.18098,212
6.18672,235
6.19243,269
6.19815,220
6.20388,0
6.2096,325
6.21532,162
6.22105,231
6.22677,209
6.23248,261
6.23822,237
6.24393,194
6.24965,324
6.25538,173
6.2611,219
6.26682,275
6.27255,255
6.27827,182
6.28398,262
6.2897,377
6.29543,400
6.30115,409
6.30687,410
6.3126,191
6.31832,315
6.32403,344
6.32977,316
6.33548,342
6.3412,282
6.34693,195
6.35265,165
6.35837,160
6.3641,353
6.36982,461
6.37553,420
6.38127,187
6.38698,271
6.3927,372
6.39843,373
6.40415,202
6.40987,261
6.41558,208
6.42132,416
6.42703,162
6.43275,433
6.43848,364
6.4442,192
6.44992,198
6.45565,215
6.46137,282
6.46708,392
6.47282,468
6.47853,150
6.48425,244
6.48998,223
6.4957,188
6.50142,207
6.50715,208
6.51287,381
6.51858,157
6.52432,236
6.53003,251
6.53575,179
6.54147,269
6.5472,0
6.55292,250
6.55863,202
6.56437,199
6.57008,290
6.5758,262
6.58153,220
6.58725,193
6.59297,162
6.5987,194
6.60442,240
6.61013,211
6.61587,221
6.62158,204
6.6273,0
6.63303,302
6.63875,180
6.64447,236
6.6502,167
6.65592,0
6.66163,249
6.66735,170
6.67308,163
6.6788,217
6.68452,200
6.69025,274
6.69597,206
6.70168,224
6.70742,277
6.71313,206
6.71885,174
6.72458,198
6.7303,430
6.73602,379
6.74175,370
6.74747,0
6.75318,167
6.75892,235
6.76463,381
6.77035,399
6.77608,330
6.7818,429
6.78752,439
6.79323,198
6.79897,446
6.80468,404
6.8104,197
6.81613,196
6.82185,164
6.82757,413
6.8333,420
6.83902,248
6.84473,164
6.85047,255
6.85618,383
6.8619,165
6.86763,191
6.87335,156
6.87907,364
6.8848,226
6.89052,157
6.89623,367
6.90197,203
6.90768,0
6.9134,0
6.91912,328
6.92485,0
6.93057,178
6.93628,0
6.94202,257
6.94773,0
6.95345,179
6.95918,187
6.9649,205
6.97062,190
6.97635,204
6.98207,170
6.98778,348
6.99352,179
6.99923,448
7.00495,370
7.01068,346
7.0164,0
7.02212,219
7.02785,175
7.03357,0
7.03928,216
7.045,0
7.05073,201
7.05645,178
7.06217,179
7.0679,185
7.07362,218
7.07933,0
7.08507,204
7.09078,165
7.0965,164
7.10223,187
7.10795,186
7.11367,228
7.1194,0
7.12512,264
7.13083,199
7.13657,192
7.14228,0
7.148,235
7.15373,175
7.15945,0
7.16517,0
7.17088,180
7.17662,197
7.18233,0
7.18805,0
7.19378,195
7.1995,175
7.20522,182
7.21095,228
7.21667,182
7.22238,154
7.22812,169
7.23383,175
7.23955,226
7.24528,162
7.251,193
7.25672,167
7.26245,187
7.26817,0
7.27388,347
7.27962,0
7.28533,159
7.29105,151
7.29677,173
7.3025,192
7.30822,163
7.31393,0
7.31967,0
7.32538,0
7.3311,178
7.33683,0
7.34255,0
7.34827,182
7.354,171
7.35972,169
7.36543,155
7.37117,187
7.37688,212
7.3826,156
7.38833,0
7.39405,190
7.39977,0
7.4055,0
7.41122,175
7.41693,160
7.42265,175
7.42838,0
7.4341,0
7.43982,194
7.44555,0
7.45127,151
7.45698,0
7.46272,0
7.46843,0
7.47415,0
7.47988,0
7.4856,179
7.49132,0
7.49705,233
7.50277,158
7.50848,0
7.51422,0
7.51993,0
7.52565,0
7.53138,0
7.5371,163
7.54282,166
7.54853,306
7.55427,0
7.55998,0
7.5657,162
7.57143,0
7.57715,161
7.58287,153
7.5886,164
7.59432,152
7.60003,0
7.60577,0
7.61148,0
7.6172,0
7.62293,0
7.62865,180
7.63437,0
7.6401,0
7.64582,178
7.65153,169
7.65727,0
7.66298,0
7.6687,175
7.67442,0
7.68015,0
7.68587,258
7.69158,158
7.69732,0
7.70303,178
7.70875,197
7.71448,0
7.7202,0
7.72592,0
7.73165,0
7.73737,177
7.74308,0
7.74882,0
7.75453,0
7.76025,0
7.76598,0
7.7717,151
7.77742,183
7.78315,0
7.78887,173
7.79458,0
7.8003,158
7.80603,0
7.81175,163
7.81747,164
7.8232,0
7.82892,195
7.83463,0
7.84037,187
7.84608,179
7.8518,0
7.85753,0
7.86325,0
7.86897,196
7.8747,0
7.88042,0
7.88613,0
7.89187,0
7.89758,0
7.9033,0
7.90903,0
7.91475,0
7.92047,163
7.92618,156
7.93192,216
7.93763,161
7.94335,0
7.94908,0
7.9548,0
7.96052,0
7.96625,184
7.97197,0
7.97768,161
7.98342,0
7.98913,0
7.99485,0
8.00058,152
8.0063,0
8.01202,0
8.01775,0
8.02347,195
8.02918,0
8.03492,0
8.04063,0
8.04635,159
8.05207,0
8.0578,0
8.06352,0
8.06923,169
8.07497,201
8.08068,0
8.0864,0
8.09213,0
8.09785,0
8.10357,0
8.1093,0
8.11502,0
8.12073,0
8.12647,0
8.13218,0
8.1379,151
8.14363,0
8.14935,151
8.15507,0
8.1608,0
8.16652,183
8.17223,0
8.17795,0
8.18368,0
8.1894,0
8.19512,0
8.20085,0
8.20657,0
8.21228,0
8.21802,0
8.22373,0
8.22945,158
8.23518,0
8.2409,0
8.24662,0
8.25235,0
8.25807,0
8.26378,0
8.26952,0
8.27523,0
8.28095,0
8.28668,156
8.2924,0
8.29812,0
8.30383,0
8.30957,0
8.31528,0
8.321,0
8.32673,0
8.33245,0
8.33817,0
8.3439,0
8.34962,0
8.35533,0
8.36107,0
8.36678,0
8.3725,0
8.37823,0
8.38395,0
8.38967,0
8.3954,0
8.40112,0
8.40683,0
8.41257,165
8.41828,0
8.424,0
8.42972,0
8.43545,0
8.44117,0
8.44688,0
8.45262,0
8.45833,0
8.46405,0
8.46978,0
8.4755,0
8.48122,0
8.48695,0
8.49267,0
8.49838,157
8.50412,0
8.50983,0
8.51555,0
8.52128,0
8.527,0
8.53272,0
8.53845,0
8.54417,0
8.54988,0
8.5556,0
8.56133,0
8.56705,0
8.57277,0
8.5785,0
8.58422,0
8.58993,0
8.59567,0
8.60138,0
8.6071,0
8.61283,0
8.61855,0
8.62427,0
8.63,0
8.63572,0
8.64143,0
8.64717,0
8.65288,0
8.6586,0
8.66433,0
8.67005,157
8.67577,0
8.68148,0
8.68722,0
8.69293,0
8.69865,0
8.70438,0
8.7101,0
8.71582,0
8.72155,0
8.72727,0
8.73298,0
8.73872,0
8.74443,0
8.75015,0
8.75588,0
8.7616,0
8.76732,0
8.77305,0
8.77877,0
8.78448,0
8.79022,0
8.79593,0
8.80165,0
8.80737,0
8.8131,176
8.81882,0
8.82453,0
8.83027,0
8.83598,0
8.8417,0
8.84743,0
8.85315,0
8.85887,0
8.8646,0
8.87032,0
8.87603,0
8.88177,0
8.88748,0
8.8932,0
8.89893,0
8.90465,0
8.91037,0
8.9161,0
8.92182,0
8.92753,155
8.93325,0
8.93898,0
8.9447,0
8.95042,0
8.95615,0
8.96187,0
8.96758,0
8.97332,0
8.97903,0
8.98475,0
8.99048,0
8.9962,0
9.00192,0
9.00765,0
9.01337,0
9.01908,0
9.02482,0
9.03053,0
9.03625,0
9.04198,0
9.0477,0
9.05342,0
9.05913,0
9.06487,237
9.07058,255
9.0763,429
9.08203,233
9.08775,239
9.09347,225
9.0992,176
9.10492,161
9.11063,163
9.11637,0
9.12208,154
9.1278,0
9.13353,0
9.13925,0
9.14497,0
9.1507,0
9.15642,0
9.16213,0
9.16787,0
9.17358,0
9.1793,0
9.18502,0
9.19075,0
9.19647,0
9.20218,0
9.20792,0
9.21363,0
9.21935,0
9.22508,0
9.2308,0
9.23652,0
9.24225,0
9.24797,0
9.25368,0
9.25942,0
9.26513,0
9.27085,0
9.27658,0
9.2823,0
9.28802,0
9.29375,0
9.29947,0
9.30518,0
9.3109,0
9.31663,0
9.32235,0
9.32807,0
9.3338,0
9.33952,0
9.34523,0
9.35097,0
9.35668,0
9.3624,151
9.36813,157
9.37385,0
9.37957,183
9.3853,1771
9.39102,3207
9.39673,3481
9.40247,3554
9.40818,3654
9.4139,2852
9.41963,2885
9.42535,2421
9.43107,2211
9.43678,2003
9.44252,1907
9.44823,2172
9.45395,1540
9.45968,1380
9.4654,1582
9.47112,1128
9.47685,1528
9.48257,1157
9.48828,1182
9.49402,666
9.49973,928
9.50545,883
9.51118,1043
9.5169,421
9.52262,503
9.52835,272
9.53407,455
9.53978,304
9.54552,185
9.55123,583
9.55695,401
9.56267,227
9.5684,212
9.57412,200
9.57983,428
9.58557,368
9.59128,168
9.597,242
9.60273,369
9.60845,366
9.61417,216
9.6199,177
9.62562,0
9.63133,182
9.63707,190
9.64278,363
9.6485,515
9.65423,0
9.65995,0
9.66567,214
9.6714,152
9.67712,0
9.68283,155
9.68855,150
9.69428,0
9.7,0
9.70572,196
9.71145,0
9.71717,0
9.72288,0
9.72862,166
9.73433,0
9.74005,217
9.74578,0
9.7515,0
9.75722,0
9.76295,0
9.76867,0
9.77438,183
9.78012,0
9.78583,0
9.79155,0
9.79728,0
9.803,0
9.80872,0
9.81445,0
9.82017,0
9.82588,0
9.8316,0
9.83733,0
9.84305,0
9.84877,0
9.8545,0
9.86022,0
9.86593,0
9.87167,0
9.87738,0
9.8831,0
9.88883,0
9.89455,0
9.90027,0
9.906,0
9.91172,0
9.91743,0
9.92317,0
9.92888,0
9.9346,0
9.94033,0
9.94605,0
9.95177,0
9.95748,0
9.96322,0
9.96893,0
9.97465,0
9.98038,0
9.9861,0
9.99182,0
9.99755,0
10.0033,0
10.009,0
10.0147,0
10.0204,0
10.0262,0
10.0319,0
10.0376,0
10.0433,0
10.0491,0
10.0548,0
10.0605,0
10.0662,0
10.0719,0
10.0777,0
10.0834,0
10.0891,0
10.0948,0
10.1005,0
10.1063,0
10.112,0
10.1177,0
10.1234,0
10.1292,0
10.1349,164
10.1406,0
10.1463,0
10.152,0
10.1578,0
10.1635,0
10.1692,0
10.1749,0
10.1807,0
10.1864,0
10.1921,0
10.1978,0
10.2035,0
10.2093,0
10.215,0
10.2207,0
10.2264,0
10.2322,0
10.2379,0
10.2436,0
10.2493,0
10.255,0
10.2608,0
10.2665,0
10.2722,0
10.2779,0
10.2837,0
10.2894,0
10.2951,0
10.3008,0
10.3065,0
10.3123,0
10.318,0
10.3237,0
10.3294,0
10.3351,0
10.3409,0
10.3466,0
10.3523,0
10.358,0
10.3638,0
10.3695,0
10.3752,0
10.3809,0
10.3866,0
10.3924,0
10.3981,0
10.4038,0
10.4095,0
10.4153,0
10.421,0
10.4267,0
10.4324,0
10.4381,0
10.4439,0
10.4496,0
10.4553,0
10.461,0
10.4668,0
10.4725,0
10.4782,0
10.4839,0
10.4896,0
10.4954,170
10.5011,0
10.5068,0
10.5125,0
10.5183,159
10.524,0
10.5297,0
10.5354,0
10.5411,0
10.5469,0
10.5526,0
10.5583,0
10.564,0
10.5698,0
10.5755,0
10.5812,0
10.5869,0
10.5926,0
10.5984,0
10.6041,0
10.6098,0
10.6155,0
10.6212,0
10.627,0
10.6327,0
10.6384,0
10.6441,0
10.6499,0
10.6556,0
10.6613,0
10.667,0
10.6727,0
10.6785,0
10.6842,0
10.6899,0
10.6956,0
10.7014,0
10.7071,0
10.7128,0
10.7185,0
10.7242,0
10.73,0
10.7357,0
10.7414,0
10.7471,0
10.7529,0
10.7586,0
10.7643,0
10.77,0
10.7757,0
10.7815,0
10.7872,0
10.7929,0
10.7986,0
10.8044,0
10.8101,0
10.8158,0
10.8215,0
10.8272,0
10.833,0
10.8387,0
10.8444,377
10.8501,541
10.8558,600
10.8616,581
10.8673,497
10.873,205
10.8787,247
10.8845,0
10.8902,0
10.8959,0
10.9016,0
10.9073,0
10.9131,0
10.9188,0
10.9245,0
10.9302,0
10.936,0
10.9417,0
10.9474,0
10.9531,0
10.9588,0
10.9646,0
10.9703,0
10.976,0
10.9817,0
10.9875,0
10.9932,0
10.9989,0
11.0046,0
11.0103,0
11.0161,0
11.0218,0
11.0275,0
11.0332,0
11.039,0
11.0447,0
11.0504,0
11.0561,0
11.0618,0
11.0676,0
11.0733,0
11.079,0
11.0847,0
11.0904,0
11.0962,0
11.1019,0
11.1076,0
11.1133,0
11.1191,248
11.1248,283
11.1305,196
11.1362,159
11.1419,198
11.1477,0
11.1534,0
11.1591,0
11.1648,0
11.1706,0
11.1763,0
11.182,0
11.1877,0
11.1934,0
11.1992,0
11.2049,0
11.2106,0
11.2163,0
11.2221,0
11.2278,0
11.2335,0
11.2392,0
11.2449,0
11.2507,0
11.2564,0
11.2621,0
11.2678,0
11.2736,0
11.2793,0
11.285,0
11.2907,0
11.2964,0
11.3022,0
11.3079,0
11.3136,0
11.3193,0
11.3251,0
11.3308,0
11.3365,0
11.3422,0
11.3479,0
11.3537,0
11.3594,0
11.3651,0
11.3708,0
11.3765,0
11.3823,0
11.388,0
11.3937,0
11.3994,0
11.4052,0
11.4109,0
11.4166,0
11.4223,0
11.428,0
11.4338,0
11.4395,0
11.4452,0
11.4509,0
11.4567,0
11.4624,0
11.4681,0
11.4738,0
11.4795,0
11.4853,0
11.491,0
11.4967,0
11.5024,197
11.5082,259
11.5139,271
11.5196,192
11.5253,0
11.531,0
11.5368,0
11.5425,0
11.5482,0
11.5539,0
11.5597,0
11.5654,0
11.5711,0
11.5768,0
11.5825,0
11.5883,0
11.594,0
11.5997,0
11.6054,0
11.6111,0
11.6169,0
11.6226,0
11.6283,0
11.634,0
11.6398,0
11.6455,0
11.6512,0
11.6569,0
11.6626,0
11.6684,0
11.6741,0
11.6798,0
11.6855,0
11.6913,0
11.697,0
11.7027,0
11.7084,0
11.7141,0
11.7199,0
11.7256,0
11.7313,0
11.737,0
11.7428,0
11.7485,0
11.7542,0
11.7599,0
11.7656,0
11.7714,0
11.7771,0
11.7828,0
11.7885,0
11.7943,0
11.8,0
11.8057,0
11.8114,0
11.8171,0
11.8229,0
11.8286,0
11.8343,0
11.84,0
11.8457,0
11.8515,0
11.8572,0
11.8629,0
11.8686,0
11.8744,0
11.8801,0
11.8858,0
11.8915,0
11.8972,0
11.903,0
11.9087,0
11.9144,0
11.9201,0
11.9259,0
11.9316,0
11.9373,0
11.943,0
11.9487,0
11.9545,0
11.9602,0
11.9659,0
11.9716,0
11.9774,0
11.9831,0
11.9888,0
11.9945,0
12.0002,0
12.006,0
12.0117,0
12.0174,0
12.0231,0
12.0289,0
12.0346,0
12.0403,0
12.046,0
12.0517,0
12.0575,0
12.0632,0
12.0689,0
12.0746,0
12.0804,0
12.0861,0
12.0918,0
12.0975,0
12.1032,0
12.109,0
12.1147,0
12.1204,0
12.1261,0
12.1318,0
12.1376,0
12.1433,0
12.149,0
12.1547,0
12.1605,0
12.1662,0
12.1719,0
12.1776,0
12.1833,0
12.1891,0
12.1948,0
12.2005,0
12.2062,0
12.212,0
12.2177,0
12.2234,0
12.2291,0
12.2348,0
12.2406,0
12.2463,0
12.252,0
12.2577,0
12.2635,0
12.2692,0
12.2749,0
12.2806,0
12.2863,0
12.2921,0
12.2978,0
12.3035,0
12.3092,0
12.315,0
12.3207,0
12.3264,0
12.3321,0
12.3378,0
12.3436,0
12.3493,0
12.355,0
12.3607,0
12.3664,0
12.3722,0
12.3779,0
12.3836,0
12.3893,0
12.3951,0
12.4008,0
12.4065,0
12.4122,0
12.4179,0
12.4237,0
12.4294,0
12.4351,0
12.4408,0
12.4466,0
12.4523,0
12.458,0
12.4637,0
12.4694,0
12.4752,0
12.4809,0
12.4866,0
12.4923,0
12.4981,0
12.5038,0
12.5095,0
12.5152,0
12.5209,0
12.5267,0
12.5324,0
12.5381,0
12.5438,0
12.5496,0
12.5553,0
12.561,0
12.5667,0
12.5724,0
12.5782,0
12.5839,0
12.5896,0
12.5953,0
12.601,0
12.6068,0
12.6125,0
12.6182,0
12.6239,0
12.6297,0
12.6354,0
12.6411,0
12.6468,0
12.6525,0
12.6583,0
12.664,0
12.6697,0
12.6754,0
12.6812,0
12.6869,0
12.6926,0
12.6983,0
12.704,0
12.7098,0
12.7155,0
12.7212,0
12.7269,0
12.7327,0
12.7384,0
12.7441,0
12.7498,0
12.7555,0
12.7613,0
12.767,0
12.7727,0
12.7784,0
12.7842,0
12.7899,0
12.7956,0
12.8013,0
12.807,0
12.8128,0
12.8185,0
12.8242,0
12.8299,0
12.8357,0
12.8414,0
12.8471,0
12.8528,0
12.8585,0
12.8643,0
12.87,0
12.8757,0
12.8814,0
12.8871,0
12.8929,0
12.8986,0
12.9043,0
12.91,0
12.9158,0
12.9215,0
12.9272,0
12.9329,0
12.9386,161
12.9444,0
12.9501,0
12.9558,0
12.9615,0
12.9673,0
12.973,0
12.9787,0
12.9844,0
12.9901,0
12.9959,0
13.0016,0
13.0073,0
13.013,0
13.0188,0
13.0245,0
13.0302,0
13.0359,0
13.0416,0
13.0474,0
13.0531,0
13.0588,0
13.0645,0
13.0703,0
13.076,0
13.0817,0
13.0874,0
13.0931,0
13.0989,0
13.1046,0
13.1103,0
13.116,0
13.1217,0
13.1275,0
13.1332,0
13.1389,0
13.1446,0
13.1504,0
13.1561,0
13.1618,0
13.1675,0
13.1732,0
13.179,0
13.1847,0
13.1904,0
13.1961,0
13.2019,0
13.2076,0
13.2133,0
13.219,0
13.2247,0
13.2305,0
13.2362,0
13.2419,0
13.2476,0
13.2534,0
13.2591,0
13.2648,0
13.2705,0
13.2762,0
13.282,0
13.2877,0
13.2934,0
13.2991,0
13.3049,0
13.3106,0
13.3163,0
13.322,0
13.3277,0
13.3335,0
13.3392,0
13.3449,0
13.3506,0
13.3564,0
13.3621,0
13.3678,0
13.3735,0
13.3792,0
13.385,0
13.3907,0
13.3964,0
13.4021,0
13.4078,0
13.4136,0
13.4193,0
13.425,0
13.4307,0
13.4365,0
13.4422,0
13.4479,0
13.4536,0
13.4593,0
13.4651,0
13.4708,0
13.4765,0
13.4822,0
13.488,0
13.4937,0
13.4994,0
13.5051,0
13.5108,0
13.5166,0
13.5223,0
13.528,0
13.5337,0
13.5395,0
13.5452,0
13.5509,0
13.5566,0
13.5623,0
13.5681,0
13.5738,0
13.5795,0
13.5852,0
13.591,0
13.5967,0
13.6024,0
13.6081,0
13.6138,0
13.6196,0
13.6253,0
13.631,0
13.6367,0
13.6424,0
13.6482,0
13.6539,0
13.6596,0
13.6653,0
13.6711,0
13.6768,0
13.6825,0
13.6882,0
13.6939,0
13.6997,0
13.7054,0
13.7111,0
13.7168,0
13.7226,0
13.7283,0
13.734,0
13.7397,0
13.7454,0
13.7512,0
13.7569,0
13.7626,0
13.7683,0
13.7741,0
13.7798,0
13.7855,0
13.7912,0
13.7969,0
13.8027,0
13.8084,0
13.8141,0
13.8198,0
13.8256,0
13.8313,0
13.837,0
13.8427,0
13.8484,0
13.8542,0
13.8599,0
13.8656,0
13.8713,0
13.877,0
13.8828,0
13.8885,0
13.8942,0
13.8999,0
13.9057,0
13.9114,0
13.9171,0
13.9228,0
13.9285,0
13.9343,0
13.94,0
13.9457,0
13.9514,0
13.9572,0
13.9629,0
13.9686,0
13.9743,0
13.98,0
13.9858,0
13.9915,0
13.9972,0
14.0029,0
14.0087,0
14.0144,0
14.0201,0
14.0258,0
14.0315,0
14.0373,0
14.043,0
14.0487,0
14.0544,0
14.0602,0
14.0659,0
14.0716,0
14.0773,0
14.083,0
14.0888,0
14.0945,0
14.1002,0
14.1059,0
14.1117,0
14.1174,0
14.1231,0
14.1288,0
14.1345,0
14.1403,0
14.146,0
14.1517,0
14.1574,0
14.1631,0
14.1689,0
14.1746,0
14.1803,0
14.186,0
14.1918,0
14.1975,0
14.2032,0
14.2089,0
14.2146,0
14.2204,0
14.2261,0
14.2318,0
14.2375,0
14.2433,0
14.249,0
14.2547,0
14.2604,0
14.2661,0
14.2719,0
14.2776,0
14.2833,0
14.289,0
14.2948,0
14.3005,0
14.3062,0
14.3119,0
14.3176,0
14.3234,0
14.3291,0
14.3348,0
14.3405,0
14.3463,0
14.352,0
14.3577,0
14.3634,0
14.3691,0
14.3749,0
14.3806,0
14.3863,0
14.392,0
14.3977,0
14.4035,0
14.4092,0
14.4149,0
14.4206,0
14.4264,0
14.4321,0
14.4378,0
14.4435,0
14.4492,0
14.455,0
14.4607,0
14.4664,0
14.4721,0
14.4779,0
14.4836,0
14.4893,0
14.495,0
14.5007,0
14.5065,0
14.5122,171
14.5179,0
14.5236,0
14.5294,0
14.5351,0
14.5408,0
14.5465,0
14.5522,0
14.558,0
14.5637,0
14.5694,0
14.5751,0
14.5809,0
14.5866,0
14.5923,0
14.598,0
14.6037,0
14.6095,0
14.6152,0
14.6209,0
14.6266,0
14.6323,0
14.6381,0
14.6438,0
14.6495,0
14.6552,0
14.661,0
14.6667,0
14.6724,0
14.6781,0
14.6838,0
14.6896,0
14.6953,0
14.701,0
14.7067,0
14.7125,0
14.7182,0
14.7239,0
14.7296,0
14.7353,0
14.7411,0
14.7468,0
14.7525,0
14.7582,0
14.764,0
14.7697,0
14.7754,0
14.7811,0
14.7868,0
14.7926,0
14.7983,0
14.804,0
14.8097,0
14.8155,0
14.8212,0
14.8269,0
14.8326,0
14.8383,0
14.8441,0
14.8498,0
14.8555,0
14.8612,0
14.867,0
14.8727,0
14.8784,0
14.8841,0
14.8898,0
14.8956,0
14.9013,0
14.907,0
14.9127,0
14.9184,0
14.9242,0
14.9299,0
14.9356,0
14.9413,0
14.9471,0
14.9528,0
14.9585,0
14.9642,0
14.9699,0
14.9757,0
14.9814,0
14.9871,0
14.9928,0
14.9986,0
15.0043,0
15.01,0
15.0157,0
15.0214,0
15.0272,0
15.0329,0
15.0386,0
15.0443,0
15.0501,0
15.0558,0
15.0615,0
15.0672,0
15.0729,0
15.0787,0
15.0844,0
15.0901,0
15.0958,0
15.1016,0
15.1073,0
15.113,0
15.1187,0
15.1244,0
15.1302,0
15.1359,0
15.1416,0
15.1473,0
15.153,0
15.1588,0
15.1645,0
15.1702,0
15.1759,0
15.1817,0
15.1874,0
15.1931,0
15.1988,0
15.2045,0
15.2103,0
15.216,0
15.2217,0
15.2274,0
15.2332,0
15.2389,0
15.2446,0
15.2503,0
15.256,0
15.2618,0
15.2675,184
15.2732,0
15.2789,0
15.2847,0
15.2904,0
15.2961,0
15.3018,0
15.3075,0
15.3133,0
15.319,0
15.3247,0
15.3304,0
15.3362,0
15.3419,0
15.3476,0
15.3533,0
15.359,0
15.3648,0
15.3705,0
15.3762,0
15.3819,0
15.3876,0
15.3934,0
15.3991,151
15.4048,0
15.4105,0
15.4163,0
15.422,0
15.4277,0
15.4334,0
15.4391,165
15.4449,0
15.4506,0
15.4563,0
15.462,0
15.4678,0
15.4735,0
15.4792,0
15.4849,0
15.4906,202
15.4964,0
15.5021,0
15.5078,0
15.5135,0
15.5193,0
15.525,0
15.5307,0
15.5364,0
15.5421,0
15.5479,167
15.5536,184
15.5593,0
15.565,0
15.5708,0
15.5765,0
15.5822,0
15.5879,0
15.5936,0
15.5994,0
15.6051,0
15.6108,0
15.6165,0
15.6223,0
15.628,0
15.6337,0
15.6394,0
15.6451,0
15.6509,168
15.6566,0
15.6623,0
15.668,0
15.6737,0
15.6795,0
15.6852,0
15.6909,175
15.6966,0
15.7024,0
15.7081,0
15.7138,0
15.7195,0
15.7252,0
15.731,0
15.7367,193
15.7424,0
15.7481,0
15.7539,0
15.7596,0
15.7653,0
15.771,0
15.7767,0
15.7825,155
15.7882,0
15.7939,0
15.7996,0
15.8054,0
15.8111,0
15.8168,0
15.8225,0
15.8282,0
15.834,159
15.8397,0
15.8454,0
15.8511,0
15.8569,0
15.8626,0
15.8683,176
15.874,179
15.8797,0
15.8855,0
15.8912,0
15.8969,0
15.9026,0
15.9083,0
15.9141,0
15.9198,163
15.9255,0
15.9312,0
15.937,0
15.9427,0
15.9484,0
15.9541,0
15.9598,0
15.9656,0
15.9713,0
15.977,0
15.9827,0
15.9885,0
15.9942,0
15.9999,0
16.0056,0
16.0113,0
16.0171,0
16.0228,0
16.0285,0
16.0342,0
16.04,0
16.0457,0
16.0514,0
16.0571,194
16.0628,0
16.0685,0
16.0743,163
16.08,0
16.0857,164
16.0914,0
16.0972,0
16.1029,0
16.1086,0
16.1143,0
16.12,150
16.1258,0
16.1315,0
16.1372,0
16.1429,0
16.1487,0
16.1544,0
16.1601,0
16.1658,0
16.1716,0
16.1773,0
16.183,0
16.1887,150
16.1944,0
16.2002,196
16.2059,181
16.2116,0
16.2173,156
16.2231,0
16.2288,160
16.2345,0
16.2402,164
16.2459,0
16.2517,0
16.2574,160
16.2631,168
16.2688,160
16.2746,172
16.2803,236
16.286,154
16.2917,162
16.2974,0
16.3031,0
16.3089,0
16.3146,0
16.3203,0
16.326,0
16.3318,153
16.3375,0
16.3432,208
16.3489,174
16.3546,0
16.3604,246
16.3661,247
16.3718,0
16.3775,154
16.3833,0
16.389,0
16.3947,0
16.4004,182
16.4062,150
16.4119,0
16.4176,150
16.4233,0
16.429,0
16.4348,0
16.4405,185
16.4462,192
16.4519,162
16.4577,0
16.4634,161
16.4691,0
16.4748,213
16.4805,151
16.4863,171
16.492,173
16.4977,0
16.5034,0
16.5092,0
16.5149,0
16.5206,161
16.5263,0
16.532,159
16.5377,173
16.5435,173
16.5492,0
16.5549,257
16.5606,166
16.5664,0
16.5721,0
16.5778,0
16.5835,0
16.5893,0
16.595,183
16.6007,181
16.6064,0
16.6122,165
16.6179,0
16.6236,0
16.6293,152
16.635,230
16.6408,194
16.6465,0
16.6522,171
16.6579,0
16.6636,0
16.6694,158
16.6751,160
16.6808,207
16.6865,0
16.6923,238
16.698,262
16.7037,209
16.7094,176
16.7151,0
16.7209,0
16.7266,171
16.7323,212
16.738,180
16.7437,187
16.7495,308
16.7552,0
16.7609,296
16.7666,278
16.7723,206
16.7781,158
16.7838,153
16.7895,0
16.7952,186
16.801,183
16.8067,258
16.8124,164
16.8181,207
16.8239,189
16.8296,0
16.8353,277
16.841,0
16.8468,186
16.8525,266
16.8582,210
16.8639,202
16.8696,0
16.8754,239
16.8811,199
16.8868,0
16.8925,245
16.8982,156
16.904,267
16.9097,0
16.9154,212
16.9211,239
16.9269,210
16.9326,0
16.9383,187
16.944,422
16.9497,212
16.9555,332
16.9612,248
16.9669,151
16.9726,247
16.9783,154
16.9841,174
16.9898,248
16.9955,218
17.0012,220
17.007,0
17.0127,246
17.0184,210
17.0241,158
17.0299,191
17.0356,274
17.0413,209
17.047,283
17.0527,216
17.0585,282
17.0642,0
17.0699,174
17.0756,258
17.0814,243
17.0871,0
17.0928,237
17.0985,0
17.1042,162
17.11,153
17.1157,0
17.1214,0
17.1271,181
17.1329,192
17.1386,238
17.1443,152
17.15,219
17.1557,244
17.1614,178
17.1672,415
17.1729,258
17.1786,249
17.1843,270
17.1901,194
17.1958,390
17.2015,233
17.2072,251
17.2129,193
17.2187,241
17.2244,204
17.2301,223
17.2358,299
17.2416,250
17.2473,203
17.253,196
17.2587,214
17.2645,194
17.2702,287
17.2759,289
17.2816,169
17.2873,300
17.2931,232
17.2988,191
17.3045,300
17.3102,317
17.316,234
17.3217,186
17.3274,494
17.3331,420
17.3388,221
17.3446,213
17.3503,305
17.356,239
17.3617,215
17.3675,212
17.3732,288
17.3789,190
17.3846,338
17.3903,269
17.396,478
17.4018,382
17.4075,471
17.4132,252
17.4189,248
17.4247,218
17.4304,200
17.4361,227
17.4418,290
17.4476,237
17.4533,397
17.459,298
17.4647,397
17.4704,243
17.4762,331
17.4819,282
17.4876,262
17.4933,316
17.4991,262
17.5048,235
17.5105,270
17.5162,444
17.5219,491
17.5277,353
17.5334,303
17.5391,295
17.5448,291
17.5506,472
17.5563,336
17.562,245
17.5677,371
17.5734,193
17.5792,224
17.5849,299
17.5906,437
17.5963,229
17.6021,171
17.6078,382
17.6135,175
17.6192,427
17.6249,250
17.6306,298
17.6364,269
17.6421,235
17.6478,290
17.6535,239
17.6593,255
17.665,316
17.6707,298
17.6764,534
17.6822,394
17.6879,577
17.6936,315
17.6993,261
17.705,279
17.7108,399
17.7165,438
17.7222,318
17.7279,454
17.7337,411
17.7394,201
17.7451,331
17.7508,280
17.7565,364
17.7623,500
17.768,481
17.7737,296
17.7794,269
17.7852,265
17.7909,363
17.7966,466
17.8023,337
17.808,264
17.8138,331
17.8195,262
17.8252,491
17.8309,496
17.8367,578
17.8424,537
17.8481,492
17.8538,455
17.8595,566
17.8653,370
17.871,366
17.8767,300
17.8824,246
17.8882,454
17.8939,478
17.8996,464
17.9053,238
17.911,291
17.9168,231
17.9225,467
17.9282,388
17.9339,410
17.9396,285
17.9454,238
17.9511,301
17.9568,577
17.9625,422
17.9683,411
17.974,312
17.9797,365
17.9854,455
17.9911,460
17.9969,642
18.0026,510
18.0083,288
18.014,531
18.0198,585
18.0255,307
18.0312,575
18.0369,531
18.0426,569
18.0483,583
18.0541,296
18.0598,325
18.0655,394
18.0712,406
18.077,409
18.0827,260
18.0884,637
18.0941,570
18.0999,676
18.1056,663
18.1113,497
18.117,503
18.1228,669
18.1285,479
18.1342,635
18.1399,645
18.1456,550
18.1514,537
18.1571,521
18.1628,501
18.1685,595
18.1742,548
18.18,376
18.1857,604
18.1914,621
18.1971,364
18.2029,561
18.2086,722
18.2143,752
18.22,613
18.2257,552
18.2315,355
18.2372,542
18.2429,564
18.2486,719
18.2544,375
18.2601,704
18.2658,596
18.2715,383
18.2772,573
18.283,427
18.2887,585
18.2944,673
18.3001,573
18.3059,657
18.3116,500
18.3173,614
18.323,726
18.3287,671
18.3345,639
18.3402,735
18.3459,537
18.3516,755
18.3574,383
18.3631,628
18.3688,579
18.3745,422
18.3802,652
18.386,408
18.3917,631
18.3974,693
18.4031,710
18.4089,818
18.4146,656
18.4203,745
18.426,648
18.4317,691
18.4375,741
18.4432,873
18.4489,711
18.4546,568
18.4603,745
18.4661,757
18.4718,569
18.4775,529
18.4832,628
18.489,736
18.4947,719
18.5004,800
18.5061,820
18.5118,672
18.5176,744
18.5233,695
18.529,1168
18.5347,731
18.5405,866
18.5462,656
18.5519,754
18.5576,768
18.5633,833
18.5691,754
18.5748,833
18.5805,819
18.5862,778
18.592,743
18.5977,745
18.6034,794
18.6091,680
18.6148,809
18.6206,914
18.6263,593
18.632,695
18.6377,971
18.6435,688
18.6492,734
18.6549,573
18.6606,813
18.6663,836
18.6721,635
18.6778,736
18.6835,563
18.6892,685
18.6949,536
18.7007,915
18.7064,852
18.7121,815
18.7178,1191
18.7235,2666
18.7293,4486
18.735,6131
18.7407,6313
18.7464,4613
18.7522,2537
18.7579,1721
18.7636,1073
18.7693,1125
18.7751,987
18.7808,894
18.7865,760
18.7922,855
18.7979,589
18.8037,789
18.8094,946
18.8151,1013
18.8208,666
18.8266,820
18.8323,751
18.838,1093
18.8437,1042
18.8494,895
18.8552,888
18.8609,881
18.8666,682
18.8723,1176
18.8781,810
18.8838,987
18.8895,829
18.8952,1067
18.9009,1002
18.9067,829
18.9124,947
18.9181,971
18.9238,1070
18.9295,941
18.9353,1002
18.941,779
18.9467,1201
18.9524,1247
18.9582,1080
18.9639,891
18.9696,840
18.9753,1024
18.981,793
18.9868,988
18.9925,742
18.9982,933
19.0039,1250
19.0097,1117
19.0154,1255
19.0211,1366
19.0268,918
19.0325,945
19.0383,1040
19.044,1096
19.0497,1011
19.0554,1276
19.0612,1079
19.0669,1297
19.0726,1164
19.0783,1411
19.084,1133
19.0898,1070
19.0955,974
19.1012,967
19.1069,1127
19.1127,1155
19.1184,1394
19.1241,1220
19.1298,1432
19.1355,1015
19.1412,1242
19.147,1186
19.1527,1066
19.1584,1416
19.1641,1359
19.1699,1171
19.1756,1279
19.1813,993
19.187,1152
19.1928,1178
19.1985,1454
19.2042,1467
19.2099,1061
19.2156,1336
19.2214,1245
19.2271,1339
19.2328,1243
19.2385,1201
19.2443,960
19.25,1201
19.2557,1432
19.2614,1429
19.2671,1173
19.2729,1189
19.2786,1298
19.2843,1479
19.29,1740
19.2958,1216
19.3015,1450
19.3072,1437
19.3129,1449
19.3186,1258
19.3244,1525
19.3301,1602
19.3358,1388
19.3415,1321
19.3473,1518
19.353,1426
19.3587,1556
19.3644,1375
19.3701,1524
19.3759,1408
19.3816,1574
19.3873,1740
19.393,1903
19.3988,1261
19.4045,2104
19.4102,1762
19.4159,1766
19.4216,1703
19.4274,1978
19.4331,1234
19.4388,1768
19.4445,1578
19.4502,1779
19.456,1390
19.4617,1318
19.4674,1273
19.4731,1644
19.4789,1432
19.4846,1579
19.4903,1731
19.496,1756
19.5017,1650
19.5075,1886
19.5132,1715
19.5189,1750
19.5246,1625
19.5304,1613
19.5361,2053
19.5418,1319
19.5475,1277
19.5532,2107
19.5589,1878
19.5647,2060
19.5704,1682
19.5761,2311
19.5818,1694
19.5876,2246
19.5933,1891
19.599,1463
19.6047,1836
19.6105,1768
19.6162,2076
19.6219,2026
19.6276,1700
19.6334,1621
19.6391,1723
19.6448,2250
19.6505,1962
19.6562,1601
19.662,1393
19.6677,2034
19.6734,2073
19.6791,2363
19.6848,1999
19.6906,1935
19.6963,1949
19.702,1994
19.7077,2130
19.7135,1757
19.7192,2253
19.7249,1891
19.7306,2194
19.7363,1785
19.7421,2236
19.7478,2223
19.7535,1874
19.7592,1922
19.765,2195
19.7707,2547
19.7764,2441
19.7821,1981
19.7878,2143
19.7936,2262
19.7993,2733
19.805,1900
19.8107,1980
19.8165,1864
19.8222,2245
19.8279,2308
19.8336,2610
19.8393,2038
19.8451,2042
19.8508,2384
19.8565,2339
19.8622,2006
19.868,2350
19.8737,2429
19.8794,2585
19.8851,2103
19.8908,2442
19.8966,2661
19.9023,2194
19.908,2307
19.9137,2283
19.9195,2234
19.9252,2366
19.9309,2519
19.9366,3041
19.9423,2280
19.9481,2305
19.9538,2595
19.9595,2337
19.9652,2231
19.9709,2648
19.9767,2717
19.9824,2431
19.9881,2683
19.9938,2633
19.9995,2666
20.0053,2142
20.011,2580
20.0167,2887
20.0224,2803
20.0282,2673
20.0339,2535
20.0396,2781
20.0453,2580
20.0511,2350
20.0568,2286
20.0625,2928
20.0682,2343
20.0739,3183
20.0797,2977
20.0854,2680
20.0911,3140
20.0968,3263
20.1026,2687
20.1083,2760
20.114,2988
20.1197,2533
20.1254,2904
20.1312,2422
20.1369,2737
20.1426,3081
20.1483,2562
20.1541,2852
20.1598,3308
20.1655,3212
20.1712,3336
20.1769,2751
20.1827,3609
20.1884,2914
20.1941,2827
20.1998,3150
20.2055,3306
20.2113,2830
20.217,3395
20.2227,2694
20.2284,2615
20.2342,3766
20.2399,3371
20.2456,3117
20.2513,3356
20.257,3670
20.2628,3579
20.2685,3017
20.2742,3003
20.2799,2590
20.2857,2992
20.2914,3501
20.2971,3059
20.3028,3485
20.3085,3003
20.3143,3669
20.32,3003
20.3257,3715
20.3314,3172
20.3372,3248
20.3429,3487
20.3486,3529
20.3543,3079
20.36,3809
20.3658,3568
20.3715,3285
20.3772,3556
20.3829,3591
20.3887,3787
20.3944,3859
20.4001,3563
20.4058,3600
20.4115,3700
20.4172,3747
20.423,3816
20.4287,3841
20.4344,3865
20.4402,3456
20.4459,3774
20.4516,3765
20.4573,3749
20.463,3721
20.4688,3476
20.4745,3710
20.4802,3348
20.4859,4137
20.4916,3739
20.4974,3591
20.5031,3779
20.5088,3745
20.5145,4057
20.5203,4336
20.526,4371
20.5317,4061
20.5374,4553
20.5431,4616
20.5489,3813
20.5546,3910
20.5603,4208
20.566,4412
20.5718,4108
20.5775,4798
20.5832,3965
20.5889,4487
20.5946,3833
20.6004,3827
20.6061,4307
20.6118,4310
20.6175,4062
20.6233,4916
20.629,4690
20.6347,4427
20.6404,4616
20.6461,4688
20.6519,4441
20.6576,4535
20.6633,3966
20.669,4556
20.6748,4189
20.6805,4699
20.6862,4398
20.6919,4760
20.6976,5171
20.7034,4508
20.7091,4499
20.7148,4358
20.7205,4756
20.7262,4856
20.732,4366
20.7377,4438
20.7434,5073
20.7491,5064
20.7549,4661
20.7606,4354
20.7663,4775
20.772,4989
20.7777,4901
20.7835,5076
20.7892,4913
20.7949,4871
20.8006,4816
20.8064,5539
20.8121,5270
20.8178,4996
20.8235,5035
20.8292,5806
20.835,5007
20.8407,5056
20.8464,5571
20.8521,4976
20.8579,5521
20.8636,5401
20.8693,5280
20.875,4939
20.8807,5457
20.8865,5757
20.8922,5363
20.8979,5766
20.9036,5279
20.9094,4908
20.9151,5592
20.9208,5700
20.9265,4936
20.9322,5782
20.938,5337
20.9437,5506
20.9494,5319
20.9551,5307
20.9608,5930
20.9666,5690
20.9723,5632
20.978,5427
20.9837,5332
20.9895,5306
20.9952,5738
21.0009,6008
21.0066,5763
21.0123,6075
21.0181,5499
21.0238,5580
21.0295,5846
21.0352,5726
21.041,6152
21.0467,5711
21.0524,6177
21.0581,5434
21.0638,6236
21.0696,5987
21.0753,6208
21.081,6100
21.0867,6238
21.0924,6054
21.0982,6395
21.1039,5898
21.1096,5709
21.1153,6356
21.1211,6006
21.1268,5833
21.1325,6217
21.1382,6706
21.144,6422
21.1497,6484
21.1554,6523
21.1611,5940
21.1668,6429
21.1726,6452
21.1783,6861
21.184,6266
21.1897,6476
21.1955,6811
21.2012,6227
21.2069,6291
21.2126,6315
21.2183,6358
21.2241,6914
21.2298,7184
21.2355,7629
21.2412,6298
21.2469,7108
21.2527,6610
21.2584,7125
21.2641,6848
21.2698,6536
21.2756,7129
21.2813,7101
21.287,6795
21.2927,6719
21.2984,6932
21.3042,7389
21.3099,7265
21.3156,7191
21.3213,7272
21.3271,6851
21.3328,7112
21.3385,7324
21.3442,7368
21.3499,6908
21.3557,7259
21.3614,7719
21.3671,7326
21.3728,7718
21.3786,7045
21.3843,7424
21.39,7980
21.3957,7682
21.4014,7428
21.4072,7966
21.4129,7759
21.4186,7755
21.4243,7419
21.4301,7651
21.4358,8416
21.4415,7700
21.4472,7764
21.4529,8298
21.4587,8145
21.4644,8384
21.4701,7452
21.4758,8472
21.4815,8170
21.4873,8301
21.493,8286
21.4987,8243
21.5044,7935
21.5101,8052
21.5159,8070
21.5216,8412
21.5273,8185
21.533,8255
21.5388,8337
21.5445,8358
21.5502,8634
21.5559,7990
21.5617,8587
21.5674,7660
21.5731,9006
21.5788,8755
21.5845,9029
21.5903,7926
21.596,8913
21.6017,8492
21.6074,9427
21.6132,9656
21.6189,9225
21.6246,8633
21.6303,8349
21.636,9191
21.6418,9195
21.6475,8606
21.6532,9695
21.6589,8900
21.6647,9368
21.6704,8699
21.6761,8865
21.6818,9352
21.6875,9698
21.6933,9734
21.699,9134
21.7047,9435
21.7104,9529
21.7161,9690
21.7219,9565
21.7276,9069
21.7333,9529
21.739,9412
21.7448,9749
21.7505,10669
21.7562,9241
21.7619,10087
21.7676,9859
21.7734,10113
21.7791,9643
21.7848,9435
21.7905,9328
21.7963,10531
21.802,10001
21.8077,10604
21.8134,10286
21.8191,10646
21.8249,10167
21.8306,10309
21.8363,10798
21.842,10271
21.8478,10563
21.8535,9594
21.8592,9838
21.8649,10278
21.8706,10988
21.8764,11071
21.8821,10605
21.8878,10769
21.8935,10652
21.8993,11574
21.905,11069
21.9107,11003
21.9164,11259
21.9221,10440
21.9278,11405
21.9336,11073
21.9393,11212
21.945,10476
21.9507,10992
21.9565,11086
21.9622,11047
21.9679,11374
21.9736,11147
21.9794,12071
21.9851,12292
21.9908,11745
21.9965,12893
22.0022,11419
22.008,11913
22.0137,11204
22.0194,11712
22.0251,12814
22.0309,14846
22.0366,17488
22.0423,19357
22.048,18297
22.0537,15402
22.0595,13270
22.0652,12527
22.0709,12235
22.0766,12030
22.0824,12563
22.0881,12028
22.0938,12488
22.0995,12508
22.1052,13199
22.111,11794
22.1167,13001
22.1224,12532
22.1281,12618
22.1339,13316
22.1396,13504
22.1453,12845
22.151,12713
22.1567,12548
22.1625,12736
22.1682,12851
22.1739,12795
22.1796,12770
22.1854,13415
22.1911,12570
22.1968,12511
22.2025,13957
22.2082,12497
22.214,13174
22.2197,12781
22.2254,13915
22.2311,12810
22.2368,13174
22.2426,14227
22.2483,12938
22.254,13254
22.2597,13790
22.2655,13420
22.2712,13667
22.2769,13956
22.2826,12859
22.2883,13379
22.2941,14838
22.2998,14120
22.3055,14521
22.3112,13876
22.317,13647
22.3227,13755
22.3284,13765
22.3341,13622
22.3398,13983
22.3455,13780
22.3513,13790
22.357,14437
22.3627,14612
22.3685,14248
22.3742,15060
22.3799,14778
22.3856,14007
22.3913,14756
22.3971,15293
22.4028,14172
22.4085,13792
22.4142,14597
22.42,14673
22.4257,14233
22.4314,14738
22.4371,14650
22.4428,14789
22.4486,15447
22.4543,14533
22.46,15229
22.4657,14808
22.4714,15608
22.4772,14574
22.4829,16059
22.4886,15331
22.4943,15687
22.5001,16498
22.5058,16254
22.5115,15845
22.5172,15470
22.5229,15413
22.5287,15941
22.5344,15534
22.5401,15551
22.5458,15028
22.5516,16052
22.5573,14782
22.563,15990
22.5687,16426
22.5744,16009
22.5802,16211
22.5859,15836
22.5916,17003
22.5973,16031
22.6031,15498
22.6088,16894
22.6145,16296
22.6202,15094
22.6259,16596
22.6317,17009
22.6374,16144
22.6431,16644
22.6488,17727
22.6546,16024
22.6603,17214
22.666,16421
22.6717,17223
22.6774,17069
22.6832,17617
22.6889,17622
22.6946,17863
22.7003,16418
22.7061,17260
22.7118,16812
22.7175,17447
22.7232,17407
22.7289,17991
22.7347,17393
22.7404,16810
22.7461,18412
22.7518,17056
22.7575,17061
22.7633,18057
22.769,17999
22.7747,16917
22.7804,17752
22.7862,18277
22.7919,18375
22.7976,18370
22.8033,17846
22.809,18078
22.8148,18201
22.8205,17732
22.8262,18337
22.8319,18736
22.8377,17418
22.8434,19010
22.8491,19350
22.8548,18852
22.8605,18755
22.8663,18993
22.872,18553
22.8777,18955
22.8834,18949
22.8892,18343
22.8949,19415
22.9006,18961
22.9063,18911
22.912,19795
22.9178,18922
22.9235,17455
22.9292,19095
22.9349,19073
22.9407,19105
22.9464,19200
22.9521,19793
22.9578,19368
22.9635,19412
22.9693,19338
22.975,18680
22.9807,18905
22.9864,20147
22.9921,19086
22.9979,19510
23.0036,20463
23.0093,19345
23.015,18653
23.0208,19582
23.0265,19597
23.0322,19115
23.0379,19526
23.0436,20172
23.0494,19862
23.0551,20531
23.0608,19675
23.0665,19401
23.0723,20090
23.078,19350
23.0837,20803
23.0894,21291
23.0951,20059
23.1009,20392
23.1066,20259
23.1123,20139
23.118,20585
23.1238,20120
23.1295,21087
23.1352,19932
23.1409,20604
23.1466,20866
23.1524,22134
23.1581,20484
23.1638,22017
23.1695,21636
23.1753,20743
23.181,20306
23.1867,20855
23.1924,21303
23.1981,21183
23.2039,21470
23.2096,21310
23.2153,21099
23.221,21307
23.2267,21021
23.2325,22049
23.2382,21722
23.2439,20849
23.2496,22211
23.2554,22180
23.2611,21030
23.2668,21567
23.2725,21016
23.2782,21981
23.284,21171
23.2897,21801
23.2954,21597
23.3011,21652
23.3069,22341
23.3126,22479
23.3183,22262
23.324,20097
23.3297,21167
23.3355,21798
23.3412,21944
23.3469,21937
23.3526,22869
23.3584,22853
23.3641,22733
23.3698,23583
23.3755,22953
23.3812,21918
23.387,22437
23.3927,22154
23.3984,21336
23.4041,21480
23.4099,23277
23.4156,22348
23.4213,22558
23.427,22066
23.4327,22695
23.4385,23532
23.4442,21400
23.4499,22476
23.4556,22532
23.4613,23102
23.4671,22644
23.4728,23852
23.4785,22003
23.4842,22289
23.49,23740
23.4957,23251
23.5014,23436
23.5071,23485
23.5128,22590
23.5186,22948
23.5243,22017
23.53,22547
23.5357,22882
23.5415,23074
23.5472,23398
23.5529,23218
23.5586,23635
23.5643,23924
23.5701,24787
23.5758,23609
23.5815,23837
23.5872,23401
23.593,23101
23.5987,24657
23.6044,22678
23.6101,24095
23.6158,23824
23.6216,24293
23.6273,24134
23.633,23919
23.6387,24772
23.6445,23593
23.6502,23920
23.6559,23704
23.6616,24728
23.6673,24517
23.6731,24134
23.6788,23844
23.6845,23432
23.6902,24519
23.696,24076
23.7017,23553
23.7074,25152
23.7131,25146
23.7188,24247
23.7246,24070
23.7303,24219
23.736,24411
23.7417,23490
23.7474,23712
23.7532,24621
23.7589,24656
23.7646,24125
23.7703,24500
23.7761,24495
23.7818,24772
23.7875,24376
23.7932,24592
23.7989,25015
23.8047,24459
23.8104,25110
23.8161,24255
23.8218,24722
23.8276,24041
23.8333,24121
23.839,24469
23.8447,25827
23.8504,23819
23.8562,24435
23.8619,23447
23.8676,24737
23.8733,24148
23.879,23212
23.8848,24784
23.8905,25209
23.8962,24521
23.9019,24076
23.9077,25718
23.9134,23960
23.9191,24302
23.9248,23868
23.9306,25986
23.9363,25920
23.942,24325
23.9477,24515
23.9534,24051
23.9592,23744
23.9649,24714
23.9706,25432
23.9763,24847
23.982,25349
23.9878,23334
23.9935,25274
23.9992,23741
24.0049,23241
24.0107,24663
24.0164,25017
24.0221,24158
24.0278,23604
24.0335,24922
24.0393,25034
24.045,24885
24.0507,25121
24.0564,23187
24.0622,24857
24.0679,25621
24.0736,24177
24.0793,24651
24.085,25538
24.0908,23957
24.0965,24454
24.1022,24498
24.1079,23459
24.1137,24823
24.1194,22640
24.1251,24407
24.1308,25212
24.1365,25065
24.1423,24020
24.148,24410
24.1537,25349
24.1594,24589
24.1652,23700
24.1709,24554
24.1766,25079
24.1823,24566
24.188,24221
24.1938,25157
24.1995,25094
24.2052,24982
24.2109,24950
24.2167,24437
24.2224,23743
24.2281,25262
24.2338,24091
24.2395,25071
24.2453,24779
24.251,24801
24.2567,24725
24.2624,24664
24.2681,24826
24.2739,24328
24.2796,24246
24.2853,25004
24.291,25159
24.2967,24792
24.3025,24617
24.3082,24372
24.3139,25201
24.3196,23451
24.3254,24149
24.3311,25217
24.3368,24561
24.3425,24622
24.3483,25113
24.354,24162
24.3597,24565
24.3654,24889
24.3711,25093
24.3769,25105
24.3826,24804
24.3883,23244
24.394,25068
24.3998,23883
24.4055,24938
24.4112,24494
24.4169,24697
24.4226,24483
24.4284,24179
24.4341,25211
24.4398,24814
24.4455,24903
24.4513,24380
24.457,25356
24.4627,23962
24.4684,23952
24.4741,25918
24.4799,23055
24.4856,24736
24.4913,24707
24.497,25288
24.5027,24828
24.5085,24209
24.5142,24749
24.5199,25981
24.5256,24873
24.5314,23774
24.5371,25635
24.5428,24611
24.5485,23831
24.5542,25544
24.56,24370
24.5657,24489
24.5714,25142
24.5771,24353
24.5829,25371
24.5886,23331
24.5943,24869
24.6,25234
24.6057,24478
24.6115,25025
24.6172,25000
24.6229,24541
24.6286,23800
24.6344,25386
24.6401,24532
24.6458,25661
24.6515,25437
24.6572,24473
24.663,25536
24.6687,24529
24.6744,24999
24.6801,24819
24.6859,24404
24.6916,24358
24.6973,25240
24.703,23836
24.7087,24635
24.7145,25367
24.7202,25322
24.7259,24715
24.7316,24762
24.7374,25415
24.7431,24932
24.7488,25853
24.7545,24343
24.7602,24742
24.766,25741
24.7717,24027
24.7774,24896
24.7831,26217
24.7888,25177
24.7946,24153
24.8003,24814
24.806,23460
24.8117,25926
24.8175,24669
24.8232,24365
24.8289,25307
24.8346,24807
24.8403,24529
24.8461,24005
24.8518,25170
24.8575,24056
24.8632,24921
24.869,25235
24.8747,25440
24.8804,25512
24.8861,25211
24.8918,24943
24.8976,24268
24.9033,24819
24.909,25488
24.9147,22439
24.9205,24527
24.9262,23792
24.9319,24551
24.9376,25149
24.9433,25012
24.9491,24898
24.9548,25609
24.9605,25237
24.9662,24816
24.972,26196
24.9777,24967
24.9834,24149
24.9891,25285
24.9948,24722
