C:\MSDCHEM\1\DATA\BECKY\20180124 2 PHASE EXTR 2\1-23-18 MS 1B.d 24 Jan 18   7:14 pm
Start of data points
3.0925,8114
3.09822,7814
3.10395,8404
3.10967,8093
3.11538,7009
3.12112,7917
3.12683,8991
3.13255,7631
3.13828,8496
3.144,7515
3.14972,7491
3.15545,7931
3.16117,7172
3.16688,7950
3.17262,7111
3.17833,7875
3.18405,6922
3.18978,6845
3.1955,7301
3.20122,7026
3.20693,8224
3.21267,7707
3.21838,11609
3.2241,12399
3.22983,12614
3.23555,12275
3.24127,12353
3.247,11534
3.25272,10881
3.25843,12368
3.26417,11172
3.26988,10726
3.2756,11766
3.28133,11861
3.28705,10265
3.29277,11103
3.2985,11383
3.30422,10674
3.30993,10252
3.31567,9544
3.32138,10715
3.3271,10171
3.33282,10066
3.33855,10221
3.34427,9289
3.34998,8485
3.35572,9181
3.36143,10004
3.36715,8937
3.37288,7678
3.3786,8787
3.38432,8220
3.39005,7365
3.39577,8864
3.40148,7086
3.40722,7784
3.41293,8685
3.41865,7908
3.42438,8056
3.4301,8525
3.43582,7793
3.44155,7752
3.44727,7918
3.45298,7750
3.4587,6915
3.46443,8314
3.47015,8169
3.47587,7861
3.4816,6875
3.48732,6991
3.49303,6722
3.49877,7384
3.50448,7098
3.5102,6859
3.51593,7321
3.52165,7171
3.52737,7445
3.5331,6666
3.53882,7597
3.54453,6749
3.55027,6197
3.55598,5867
3.5617,6614
3.56743,6370
3.57315,6701
3.57887,6072
3.58458,6217
3.59032,6916
3.59603,6023
3.60175,6535
3.60748,5474
3.6132,6551
3.61892,6673
3.62465,6283
3.63037,5909
3.63608,6516
3.64182,6234
3.64753,5904
3.65325,6427
3.65898,6436
3.6647,4875
3.67042,6260
3.67615,6068
3.68187,5741
3.68758,6528
3.69332,4876
3.69903,6065
3.70475,4551
3.71047,6875
3.7162,6347
3.72192,5416
3.72763,5277
3.73337,5684
3.73908,5465
3.7448,5701
3.75053,4689
3.75625,5560
3.76197,4891
3.7677,4554
3.77342,5856
3.77913,4983
3.78487,4982
3.79058,4960
3.7963,4852
3.80203,5376
3.80775,5276
3.81347,4777
3.8192,5017
3.82492,5244
3.83063,4952
3.83635,4253
3.84208,5212
3.8478,5975
3.85352,4795
3.85925,4381
3.86497,5294
3.87068,4876
3.87642,4652
3.88213,4669
3.88785,4915
3.89358,4370
3.8993,4437
3.90502,4453
3.91075,4652
3.91647,5083
3.92218,3735
3.92792,4411
3.93363,4769
3.93935,5069
3.94508,4828
3.9508,4361
3.95652,3871
3.96223,4452
3.96797,4875
3.97368,4813
3.9794,5168
3.98513,3758
3.99085,4101
3.99657,4726
4.0023,4329
4.00802,4231
4.01373,4283
4.01947,4761
4.02518,5008
4.0309,4325
4.03663,4444
4.04235,4411
4.04807,4271
4.0538,4408
4.05952,5534
4.06523,4102
4.07097,5133
4.07668,4229
4.0824,5427
4.08812,4820
4.09385,5409
4.09957,3200
4.10528,3495
4.11102,4257
4.11673,4684
4.12245,4647
4.12818,4111
4.1339,4070
4.13962,4326
4.14535,4116
4.15107,4005
4.15678,4362
4.16252,3953
4.16823,3714
4.17395,3986
4.17968,4165
4.1854,3750
4.19112,2760
4.19685,3630
4.20257,3803
4.20828,3997
4.214,4020
4.21973,4239
4.22545,3656
4.23117,3168
4.2369,3823
4.24262,3149
4.24833,3777
4.25407,4432
4.25978,3586
4.2655,4348
4.27123,3189
4.27695,3504
4.28267,3999
4.2884,3044
4.29412,2825
4.29983,3435
4.30557,2735
4.31128,3324
4.317,3053
4.32273,3170
4.32845,3414
4.33417,3617
4.33988,2960
4.34562,3948
4.35133,2673
4.35705,3098
4.36278,2957
4.3685,3461
4.37422,3324
4.37995,3401
4.38567,3056
4.39138,2914
4.39712,3477
4.40283,3002
4.40855,3398
4.41428,4238
4.42,3830
4.42572,2769
4.43145,3753
4.43717,2729
4.44288,2734
4.44862,3310
4.45433,3523
4.46005,2886
4.46577,3417
4.4715,2869
4.47722,2940
4.48293,3370
4.48867,3554
4.49438,3101
4.5001,3218
4.50583,3016
4.51155,3082
4.51727,3125
4.523,2974
4.52872,2647
4.53443,2577
4.54017,3386
4.54588,2730
4.5516,2601
4.55733,3174
4.56305,2701
4.56877,2367
4.5745,2717
4.58022,2812
4.58593,3231
4.59165,2398
4.59738,2667
4.6031,2376
4.60882,2673
4.61455,2734
4.62027,2581
4.62598,2799
4.63172,3039
4.63743,2387
4.64315,2601
4.64888,3359
4.6546,1990
4.66032,2415
4.66605,2675
4.67177,2319
4.67748,2636
4.68322,2381
4.68893,2870
4.69465,2394
4.70038,3091
4.7061,3612
4.71182,2770
4.71753,3051
4.72327,2808
4.72898,3041
4.7347,2810
4.74043,2474
4.74615,1988
4.75187,1584
4.7576,2207
4.76332,2419
4.76903,2510
4.77477,1935
4.78048,2158
4.7862,2659
4.79193,3044
4.79765,2382
4.80337,3094
4.8091,3510
4.81482,2751
4.82053,1920
4.82627,2344
4.83198,2670
4.8377,2201
4.84342,2465
4.84915,2969
4.85487,2324
4.86058,2523
4.86632,2665
4.87203,2568
4.87775,2477
4.88348,2421
4.8892,2980
4.89492,2098
4.90065,2639
4.90637,2032
4.91208,1470
4.91782,1978
4.92353,2697
4.92925,1867
4.93498,3408
4.9407,2022
4.94642,3052
4.95215,2950
4.95787,3123
4.96358,2465
4.96932,2432
4.97503,2469
4.98075,2138
4.98647,2707
4.9922,2541
4.99792,2483
5.00363,2310
5.00937,2086
5.01508,1733
5.0208,1712
5.02653,2413
5.03225,3658
5.03797,5234
5.0437,10432
5.04942,13809
5.05513,14910
5.06087,12786
5.06658,13745
5.0723,17830
5.07803,28079
5.08375,40454
5.08947,48144
5.0952,51319
5.10092,54078
5.10663,51671
5.11235,47358
5.11808,45852
5.1238,41301
5.12952,39906
5.13525,37288
5.14097,33784
5.14668,32277
5.15242,28789
5.15813,27255
5.16385,24142
5.16958,24339
5.1753,22063
5.18102,21177
5.18675,18427
5.19247,17905
5.19818,16779
5.20392,16392
5.20963,16482
5.21535,15433
5.22108,13182
5.2268,12987
5.23252,11183
5.23823,11903
5.24397,10839
5.24968,9513
5.2554,9939
5.26113,9176
5.26685,8941
5.27257,7797
5.2783,7752
5.28402,8076
5.28973,7388
5.29547,6915
5.30118,5800
5.3069,5415
5.31263,5593
5.31835,4885
5.32407,5051
5.3298,4915
5.33552,5504
5.34123,4563
5.34697,4145
5.35268,3935
5.3584,4098
5.36412,3583
5.36985,2925
5.37557,3744
5.38128,2679
5.38702,3799
5.39273,3183
5.39845,2878
5.40418,3187
5.4099,2601
5.41562,3578
5.42135,3693
5.42707,3195
5.43278,3464
5.43852,3630
5.44423,3363
5.44995,2984
5.45568,3509
5.4614,2614
5.46712,2519
5.47285,2924
5.47857,2721
5.48428,2672
5.49,2627
5.49573,1685
5.50145,2209
5.50717,2477
5.5129,1996
5.51862,1861
5.52433,2309
5.53007,1862
5.53578,1860
5.5415,2150
5.54723,2626
5.55295,2161
5.55867,1520
5.5644,1824
5.57012,2186
5.57583,1827
5.58157,1976
5.58728,1781
5.593,2308
5.59873,2073
5.60445,2118
5.61017,2204
5.61588,2421
5.62162,1649
5.62733,1614
5.63305,2436
5.63878,2157
5.6445,1976
5.65022,1353
5.65595,1678
5.66167,1313
5.66738,1288
5.67312,1604
5.67883,1161
5.68455,1539
5.69028,1341
5.696,1480
5.70172,1494
5.70745,1366
5.71317,1047
5.71888,1070
5.72462,827
5.73033,957
5.73605,1296
5.74177,1791
5.7475,1231
5.75322,1562
5.75893,1623
5.76467,1013
5.77038,2030
5.7761,1154
5.78183,1509
5.78755,1338
5.79327,1895
5.799,817
5.80472,996
5.81043,1305
5.81617,1255
5.82188,1370
5.8276,1439
5.83333,538
5.83905,796
5.84477,878
5.8505,1246
5.85622,1090
5.86193,992
5.86765,1094
5.87338,1073
5.8791,1891
5.88482,1850
5.89055,1186
5.89627,2051
5.90198,1316
5.90772,1636
5.91343,1195
5.91915,851
5.92488,1103
5.9306,1014
5.93632,1821
5.94205,838
5.94777,1330
5.95348,1522
5.95922,1943
5.96493,1354
5.97065,1541
5.97638,1823
5.9821,1250
5.98782,1961
5.99353,1017
5.99927,1011
6.00498,1309
6.0107,1386
6.01643,1456
6.02215,1039
6.02787,1553
6.0336,1232
6.03932,1538
6.04503,1137
6.05077,914
6.05648,915
6.0622,1484
6.06793,1552
6.07365,1758
6.07937,1371
6.0851,1381
6.09082,1383
6.09653,1229
6.10227,1344
6.10798,850
6.1137,1459
6.11942,1594
6.12515,1160
6.13087,1872
6.13658,1224
6.14232,1199
6.14803,1539
6.15375,1329
6.15948,1273
6.1652,1508
6.17092,903
6.17665,1219
6.18237,1329
6.18808,1409
6.19382,1569
6.19953,1152
6.20525,1407
6.21098,1539
6.2167,1404
6.22242,1223
6.22815,1174
6.23387,1302
6.23958,849
6.2453,942
6.25103,1593
6.25675,1092
6.26247,1278
6.2682,631
6.27392,635
6.27963,1259
6.28537,783
6.29108,1239
6.2968,1112
6.30253,1313
6.30825,1475
6.31397,1546
6.3197,1167
6.32542,1237
6.33113,1494
6.33687,1081
6.34258,1810
6.3483,1512
6.35403,935
6.35975,1313
6.36547,1068
6.37118,1528
6.37692,971
6.38263,1738
6.38835,1365
6.39408,1077
6.3998,1478
6.40552,1754
6.41125,532
6.41697,564
6.42268,1175
6.42842,1187
6.43413,1241
6.43985,996
6.44558,504
6.4513,1089
6.45702,608
6.46275,964
6.46847,1345
6.47418,1180
6.47992,1313
6.48563,899
6.49135,1267
6.49707,1352
6.5028,1174
6.50852,585
6.51423,924
6.51997,1022
6.52568,593
6.5314,1035
6.53713,1104
6.54285,1191
6.54857,1118
6.5543,1472
6.56002,586
6.56573,992
6.57147,659
6.57718,893
6.5829,960
6.58863,977
6.59435,1194
6.60007,552
6.6058,606
6.61152,975
6.61723,1514
6.62295,1358
6.62868,1245
6.6344,1244
6.64012,977
6.64585,734
6.65157,230
6.65728,708
6.66302,987
6.66873,1301
6.67445,1188
6.68018,955
6.6859,536
6.69162,1444
6.69735,1306
6.70307,1098
6.70878,1445
6.71452,1226
6.72023,830
6.72595,1587
6.73168,1294
6.7374,1330
6.74312,875
6.74883,765
6.75457,567
6.76028,1167
6.766,1016
6.77173,1673
6.77745,1410
6.78317,948
6.7889,1472
6.79462,914
6.80033,1289
6.80607,1314
6.81178,1452
6.8175,1592
6.82323,1025
6.82895,1107
6.83467,931
6.8404,1247
6.84612,1077
6.85183,1228
6.85757,1453
6.86328,1220
6.869,923
6.87472,1525
6.88045,754
6.88617,790
6.89188,918
6.89762,1463
6.90333,1365
6.90905,973
6.91478,712
6.9205,991
6.92622,1226
6.93195,970
6.93767,814
6.94338,1150
6.94912,473
6.95483,996
6.96055,883
6.96628,1052
6.972,958
6.97772,870
6.98345,651
6.98917,720
6.99488,799
7.0006,1323
7.00633,1478
7.01205,992
7.01777,813
7.0235,1058
7.02922,728
7.03493,1033
7.04067,783
7.04638,885
7.0521,941
7.05783,918
7.06355,1088
7.06927,1173
7.075,898
7.08072,1540
7.08643,923
7.09217,954
7.09788,966
7.1036,674
7.10933,1371
7.11505,1339
7.12077,1107
7.12648,1758
7.13222,1471
7.13793,1215
7.14365,1077
7.14938,1159
7.1551,1810
7.16082,2409
7.16655,1769
7.17227,1950
7.17798,1320
7.18372,1151
7.18943,1688
7.19515,1256
7.20088,2174
7.2066,3074
7.21232,2898
7.21805,2322
7.22377,2457
7.22948,2675
7.23522,1916
7.24093,1714
7.24665,1950
7.25237,1358
7.2581,2281
7.26382,1546
7.26953,1336
7.27527,1501
7.28098,2319
7.2867,3737
7.29243,3318
7.29815,4150
7.30387,6179
7.3096,4670
7.31532,5093
7.32103,3646
7.32677,2810
7.33248,2144
7.3382,1959
7.34393,1538
7.34965,1349
7.35537,1145
7.3611,1067
7.36682,1441
7.37253,1047
7.37825,823
7.38398,1323
7.3897,973
7.39542,969
7.40115,628
7.40687,1310
7.41258,570
7.41832,848
7.42403,1213
7.42975,959
7.43548,927
7.4412,942
7.44692,957
7.45265,357
7.45837,1159
7.46408,608
7.46982,735
7.47553,698
7.48125,549
7.48698,930
7.4927,506
7.49842,653
7.50413,766
7.50987,854
7.51558,801
7.5213,1094
7.52703,839
7.53275,1253
7.53847,556
7.5442,525
7.54992,896
7.55563,479
7.56137,544
7.56708,1323
7.5728,534
7.57853,956
7.58425,1030
7.58997,1392
7.5957,477
7.60142,444
7.60713,696
7.61287,783
7.61858,1030
7.6243,997
7.63002,945
7.63575,620
7.64147,1317
7.64718,1051
7.65292,1095
7.65863,1015
7.66435,982
7.67008,925
7.6758,798
7.68152,980
7.68725,627
7.69297,1094
7.69868,1048
7.70442,1038
7.71013,1061
7.71585,798
7.72158,827
7.7273,902
7.73302,872
7.73875,577
7.74447,839
7.75018,828
7.7559,907
7.76163,1495
7.76735,801
7.77307,1704
7.7788,516
7.78452,747
7.79023,429
7.79597,782
7.80168,1012
7.8074,863
7.81313,832
7.81885,536
7.82457,1203
7.8303,783
7.83602,895
7.84173,766
7.84747,978
7.85318,1339
7.8589,1058
7.86463,1048
7.87035,867
7.87607,1414
7.88178,1345
7.88752,1464
7.89323,1363
7.89895,1125
7.90468,915
7.9104,870
7.91612,1127
7.92185,1102
7.92757,1222
7.93328,890
7.93902,841
7.94473,1476
7.95045,1194
7.95618,1176
7.9619,806
7.96762,1130
7.97335,1457
7.97907,992
7.98478,1409
7.99052,1277
7.99623,1400
8.00195,1211
8.00767,513
8.0134,750
8.01912,1456
8.02483,1075
8.03057,1425
8.03628,665
8.042,1325
8.04773,1447
8.05345,1078
8.05917,1342
8.0649,1688
8.07062,952
8.07633,1206
8.08207,1205
8.08778,1602
8.0935,1197
8.09923,1708
8.10495,1151
8.11067,823
8.1164,1364
8.12212,1620
8.12783,1138
8.13355,1269
8.13928,948
8.145,1736
8.15072,1493
8.15645,2081
8.16217,1594
8.16788,1034
8.17362,1329
8.17933,1879
8.18505,906
8.19078,1761
8.1965,1260
8.20222,1518
8.20795,771
8.21367,1457
8.21938,1284
8.22512,1380
8.23083,1496
8.23655,1555
8.24228,518
8.248,1242
8.25372,1033
8.25943,1579
8.26517,1401
8.27088,1059
8.2766,792
8.28233,1385
8.28805,1199
8.29377,708
8.2995,1394
8.30522,1375
8.31093,1580
8.31667,803
8.32238,1188
8.3281,1304
8.33383,1181
8.33955,1569
8.34527,1729
8.351,1251
8.35672,834
8.36243,970
8.36817,873
8.37388,1820
8.3796,1162
8.38532,1480
8.39105,854
8.39677,1627
8.40248,1859
8.40822,2244
8.41393,1754
8.41965,1950
8.42538,1758
8.4311,1584
8.43682,1682
8.44255,2123
8.44827,1481
8.45398,1751
8.45972,923
8.46543,1861
8.47115,1431
8.47688,767
8.4826,739
8.48832,1388
8.49405,1791
8.49977,1381
8.50548,1415
8.51122,1467
8.51693,1119
8.52265,2031
8.52837,2312
8.5341,1446
8.53982,1268
8.54553,1449
8.55127,2398
8.55698,2298
8.5627,1919
8.56843,2026
8.57415,1663
8.57987,2005
8.5856,1570
8.59132,1979
8.59703,1502
8.60277,1349
8.60848,1271
8.6142,1737
8.61993,1076
8.62565,1003
8.63137,1502
8.6371,1224
8.64282,1125
8.64853,1726
8.65425,1264
8.65998,1192
8.6657,1483
8.67142,1497
8.67715,1570
8.68287,1765
8.68858,1970
8.69432,1599
8.70003,1572
8.70575,1856
8.71148,1693
8.7172,1496
8.72292,914
8.72865,1027
8.73437,874
8.74008,1021
8.74582,1297
8.75153,1880
8.75725,2155
8.76298,2344
8.7687,2158
8.77442,2601
8.78013,2257
8.78587,3064
8.79158,2596
8.7973,1851
8.80303,1834
8.80875,3134
8.81447,1776
8.8202,2721
8.82592,2638
8.83163,1976
8.83737,2316
8.84308,3075
8.8488,3072
8.85453,2908
8.86025,3049
8.86597,3319
8.8717,2412
8.87742,2735
8.88313,2203
8.88887,2947
8.89458,2407
8.9003,2266
8.90602,3246
8.91175,2027
8.91747,1880
8.92318,2046
8.92892,2434
8.93463,1945
8.94035,2337
8.94608,1654
8.9518,2019
8.95752,2361
8.96325,1651
8.96897,2953
8.97468,5112
8.98042,6093
8.98613,7471
8.99185,7284
8.99758,4892
9.0033,4009
9.00902,2851
9.01475,1899
9.02047,1894
9.02618,1465
9.0319,1561
9.03763,1108
9.04335,1853
9.04907,1928
9.0548,1461
9.06052,1991
9.06623,1885
9.07197,2026
9.07768,2439
9.0834,1797
9.08913,1762
9.09485,1822
9.10057,1463
9.1063,1478
9.11202,1227
9.11773,1444
9.12347,1751
9.12918,1871
9.1349,2119
9.14063,2529
9.14635,2192
9.15207,2291
9.15778,2221
9.16352,1764
9.16923,1707
9.17495,1600
9.18068,1864
9.1864,2268
9.19212,1999
9.19785,1444
9.20357,1220
9.20928,1176
9.21502,1785
9.22073,2027
9.22645,1910
9.23218,1167
9.2379,918
9.24362,1009
9.24935,737
9.25507,1555
9.26078,747
9.26652,614
9.27223,697
9.27795,419
9.28367,851
9.2894,856
9.29512,600
9.30083,800
9.30657,1290
9.31228,1003
9.318,1053
9.32373,715
9.32945,820
9.33517,1023
9.3409,1090
9.34662,892
9.35233,1439
9.35807,752
9.36378,946
9.3695,975
9.37523,964
9.38095,1094
9.38667,997
9.3924,1192
9.39812,793
9.40383,954
9.40955,1035
9.41528,485
9.421,649
9.42672,1113
9.43245,1067
9.43817,1173
9.44388,1279
9.44962,733
9.45533,928
9.46105,574
9.46678,997
9.4725,1127
9.47822,640
9.48395,808
9.48967,1007
9.49538,1066
9.50112,1169
9.50683,990
9.51255,1075
9.51828,1373
9.524,1170
9.52972,1362
9.53543,969
9.54117,929
9.54688,759
9.5526,1184
9.55833,594
9.56405,997
9.56977,979
9.5755,1160
9.58122,881
9.58693,1196
9.59267,1354
9.59838,1012
9.6041,1198
9.60983,1378
9.61555,696
9.62127,1120
9.627,1368
9.63272,1406
9.63843,1056
9.64417,1619
9.64988,618
9.6556,918
9.66132,893
9.66705,442
9.67277,1400
9.67848,1482
9.68422,1302
9.68993,1313
9.69565,1232
9.70138,984
9.7071,977
9.71282,1259
9.71855,1293
9.72427,929
9.72998,1505
9.73572,1224
9.74143,1012
9.74715,952
9.75288,1103
9.7586,919
9.76432,1919
9.77005,882
9.77577,1037
9.78148,1468
9.7872,1254
9.79293,1799
9.79865,1310
9.80437,1522
9.8101,1135
9.81582,1578
9.82153,831
9.82727,1802
9.83298,675
9.8387,765
9.84443,1213
9.85015,856
9.85587,1054
9.8616,1343
9.86732,1164
9.87303,1352
9.87877,1286
9.88448,987
9.8902,859
9.89593,1323
9.90165,1566
9.90737,1231
9.91308,1121
9.91882,909
9.92453,1379
9.93025,1428
9.93598,1473
9.9417,1319
9.94742,1892
9.95315,1246
9.95887,1119
9.96458,1543
9.97032,1917
9.97603,1431
9.98175,1588
9.98748,1327
9.9932,1963
9.99892,1191
10.0047,1242
10.0104,1253
10.0161,1330
10.0218,1397
10.0275,1132
10.0333,1491
10.039,1053
10.0447,1359
10.0504,684
10.0561,1233
10.0619,1287
10.0676,1043
10.0733,1436
10.079,1175
10.0848,1529
10.0905,718
10.0962,1169
10.1019,1415
10.1076,923
10.1134,1091
10.1191,770
10.1248,1292
10.1305,1311
10.1363,881
10.142,1405
10.1477,980
10.1534,1368
10.1591,1232
10.1649,1317
10.1706,1048
10.1763,1303
10.182,1530
10.1878,1506
10.1935,842
10.1992,1055
10.2049,723
10.2106,1043
10.2164,1279
10.2221,1319
10.2278,1351
10.2335,1206
10.2393,1670
10.245,1334
10.2507,1183
10.2564,1315
10.2621,2046
10.2679,1073
10.2736,1395
10.2793,1150
10.285,950
10.2907,1293
10.2965,1493
10.3022,1532
10.3079,1158
10.3136,1726
10.3194,1873
10.3251,1145
10.3308,1162
10.3365,920
10.3422,1475
10.348,1514
10.3537,1100
10.3594,1381
10.3651,349
10.3709,1108
10.3766,763
10.3823,1351
10.388,1416
10.3937,1716
10.3995,1703
10.4052,1518
10.4109,1779
10.4166,3743
10.4224,4493
10.4281,5107
10.4338,3926
10.4395,2676
10.4452,1760
10.451,1231
10.4567,1962
10.4624,1396
10.4681,1147
10.4739,1612
10.4796,1027
10.4853,1176
10.491,1444
10.4967,1627
10.5025,1224
10.5082,898
10.5139,601
10.5196,1033
10.5254,1437
10.5311,1960
10.5368,1394
10.5425,1905
10.5482,1327
10.554,899
10.5597,1336
10.5654,1224
10.5711,1847
10.5768,2285
10.5826,4345
10.5883,7728
10.594,10843
10.5997,11734
10.6055,10134
10.6112,6056
10.6169,4048
10.6226,2164
10.6283,2616
10.6341,1444
10.6398,2389
10.6455,1808
10.6512,2676
10.657,1639
10.6627,1764
10.6684,1358
10.6741,1963
10.6798,1257
10.6856,1808
10.6913,1561
10.697,1253
10.7027,1032
10.7085,1859
10.7142,810
10.7199,1575
10.7256,1418
10.7313,1079
10.7371,1872
10.7428,1920
10.7485,1332
10.7542,827
10.76,1483
10.7657,1834
10.7714,1390
10.7771,1825
10.7828,1388
10.7886,1831
10.7943,1387
10.8,1757
10.8057,1576
10.8114,792
10.8172,1108
10.8229,1173
10.8286,1982
10.8343,1527
10.8401,1999
10.8458,1232
10.8515,978
10.8572,1308
10.8629,1566
10.8687,1750
10.8744,1970
10.8801,2553
10.8858,3726
10.8916,3751
10.8973,3745
10.903,2923
10.9087,2016
10.9144,1515
10.9202,1803
10.9259,1948
10.9316,1755
10.9373,1807
10.9431,2524
10.9488,2939
10.9545,2215
10.9602,2881
10.9659,2901
10.9717,3065
10.9774,2855
10.9831,3028
10.9888,3427
10.9946,4069
11.0003,3607
11.006,4076
11.0117,2928
11.0174,4065
11.0232,4557
11.0289,3876
11.0346,3770
11.0403,4812
11.046,4197
11.0518,4212
11.0575,3984
11.0632,3743
11.0689,4326
11.0747,4219
11.0804,4215
11.0861,3938
11.0918,4379
11.0975,4711
11.1033,4975
11.109,4094
11.1147,4704
11.1204,7168
11.1262,7985
11.1319,10065
11.1376,11695
11.1433,9854
11.149,8611
11.1548,12594
11.1605,22065
11.1662,39453
11.1719,56572
11.1777,57931
11.1834,48375
11.1891,36769
11.1948,34133
11.2005,29931
11.2063,26181
11.212,20955
11.2177,20119
11.2234,18382
11.2292,17745
11.2349,15593
11.2406,13788
11.2463,13666
11.252,13114
11.2578,12062
11.2635,12242
11.2692,10856
11.2749,10992
11.2807,11203
11.2864,9222
11.2921,9533
11.2978,8802
11.3035,8771
11.3093,7612
11.315,7964
11.3207,9140
11.3264,9817
11.3321,7646
11.3379,7624
11.3436,7305
11.3493,7407
11.355,6794
11.3608,6996
11.3665,7487
11.3722,7029
11.3779,5582
11.3836,7100
11.3894,5544
11.3951,8340
11.4008,7423
11.4065,8154
11.4123,8542
11.418,7462
11.4237,7737
11.4294,7322
11.4351,7532
11.4409,8279
11.4466,8993
11.4523,7478
11.458,7751
11.4638,6104
11.4695,5566
11.4752,7064
11.4809,5975
11.4866,5782
11.4924,6514
11.4981,5487
11.5038,5637
11.5095,5158
11.5153,6177
11.521,5169
11.5267,4752
11.5324,5638
11.5381,4964
11.5439,5095
11.5496,5487
11.5553,5211
11.561,5640
11.5667,4794
11.5725,5401
11.5782,5427
11.5839,4405
11.5896,4684
11.5954,6057
11.6011,5157
11.6068,4811
11.6125,4316
11.6182,5574
11.624,5200
11.6297,4489
11.6354,5677
11.6411,4466
11.6469,6595
11.6526,6206
11.6583,6350
11.664,6219
11.6697,5036
11.6755,4757
11.6812,4426
11.6869,3919
11.6926,5441
11.6984,6146
11.7041,7358
11.7098,8601
11.7155,7540
11.7212,7218
11.727,4920
11.7327,4416
11.7384,3463
11.7441,3875
11.7499,5148
11.7556,4041
11.7613,3316
11.767,5276
11.7727,5493
11.7785,5501
11.7842,4964
11.7899,4599
11.7956,4990
11.8013,5634
11.8071,4498
11.8128,4676
11.8185,4346
11.8242,4733
11.83,5064
11.8357,4048
11.8414,4444
11.8471,3885
11.8528,3499
11.8586,4359
11.8643,3740
11.87,4602
11.8757,3851
11.8815,4205
11.8872,3107
11.8929,3692
11.8986,3448
11.9043,3502
11.9101,3207
11.9158,4570
11.9215,3489
11.9272,2984
11.933,2739
11.9387,2481
11.9444,3535
11.9501,2608
11.9558,3158
11.9616,2874
11.9673,2640
11.973,2843
11.9787,2515
11.9845,2556
11.9902,2832
11.9959,3032
12.0016,4139
12.0073,3408
12.0131,3367
12.0188,3053
12.0245,2525
12.0302,2994
12.036,2976
12.0417,3088
12.0474,3200
12.0531,2176
12.0588,3394
12.0646,3537
12.0703,3805
12.076,3486
12.0817,3629
12.0874,3399
12.0932,3528
12.0989,5039
12.1046,4994
12.1103,4556
12.1161,4008
12.1218,3162
12.1275,3112
12.1332,2920
12.1389,2815
12.1447,3307
12.1504,3345
12.1561,2817
12.1618,3173
12.1676,3752
12.1733,3210
12.179,3529
12.1847,2827
12.1904,3019
12.1962,3401
12.2019,3169
12.2076,3607
12.2133,3621
12.2191,3328
12.2248,3185
12.2305,3084
12.2362,3474
12.2419,3797
12.2477,3016
12.2534,3239
12.2591,4223
12.2648,4857
12.2706,3446
12.2763,3605
12.282,3037
12.2877,3218
12.2934,3708
12.2992,3855
12.3049,3912
12.3106,4573
12.3163,3804
12.322,4439
12.3278,3895
12.3335,3841
12.3392,4009
12.3449,4039
12.3507,3705
12.3564,3923
12.3621,4010
12.3678,3339
12.3735,3786
12.3793,3893
12.385,4495
12.3907,3680
12.3964,3571
12.4022,4072
12.4079,3983
12.4136,3727
12.4193,4645
12.425,3892
12.4308,4855
12.4365,4968
12.4422,4466
12.4479,5143
12.4537,4800
12.4594,4462
12.4651,5993
12.4708,6851
12.4765,7666
12.4823,7111
12.488,8417
12.4937,7549
12.4994,8181
12.5052,9719
12.5109,10395
12.5166,14281
12.5223,20539
12.528,29169
12.5338,40351
12.5395,45544
12.5452,44923
12.5509,40416
12.5567,37603
12.5624,35363
12.5681,34585
12.5738,31021
12.5795,30160
12.5853,24143
12.591,23340
12.5967,22452
12.6024,18768
12.6081,17814
12.6139,18121
12.6196,15881
12.6253,15776
12.631,16417
12.6368,14622
12.6425,13060
12.6482,13670
12.6539,14044
12.6596,11791
12.6654,11981
12.6711,11901
12.6768,12294
12.6825,12492
12.6883,11903
12.694,12310
12.6997,10947
12.7054,12217
12.7111,13498
12.7169,17042
12.7226,16941
12.7283,16934
12.734,16637
12.7398,17611
12.7455,15413
12.7512,15132
12.7569,14881
12.7626,14547
12.7684,13499
12.7741,12241
12.7798,11686
12.7855,11427
12.7913,10147
12.797,10697
12.8027,10393
12.8084,9266
12.8141,10208
12.8199,8984
12.8256,9375
12.8313,9509
12.837,8185
12.8427,9248
12.8485,8440
12.8542,7670
12.8599,10015
12.8656,8776
12.8714,8306
12.8771,9155
12.8828,10390
12.8885,10627
12.8942,10370
12.9,9049
12.9057,7778
12.9114,6887
12.9171,7610
12.9229,6924
12.9286,6931
12.9343,7685
12.94,7686
12.9457,7855
12.9515,6806
12.9572,7540
12.9629,7831
12.9686,7815
12.9744,8073
12.9801,6886
12.9858,6569
12.9915,7031
12.9972,8093
13.003,5845
13.0087,8276
13.0144,6210
13.0201,7134
13.0259,7558
13.0316,7851
13.0373,6611
13.043,6331
13.0487,6681
13.0545,6964
13.0602,7021
13.0659,7872
13.0716,6744
13.0773,7041
13.0831,7400
13.0888,6959
13.0945,7101
13.1002,7258
13.106,6110
13.1117,6270
13.1174,7128
13.1231,6211
13.1288,7524
13.1346,7152
13.1403,6899
13.146,6304
13.1517,6490
13.1575,6778
13.1632,7575
13.1689,7137
13.1746,6426
13.1803,6763
13.1861,6874
13.1918,6774
13.1975,6991
13.2032,6497
13.209,6398
13.2147,7327
13.2204,5909
13.2261,6408
13.2318,6222
13.2376,6302
13.2433,6433
13.249,7273
13.2547,7699
13.2605,6437
13.2662,7024
13.2719,7298
13.2776,7532
13.2833,8157
13.2891,5938
13.2948,6735
13.3005,6967
13.3062,7156
13.312,7043
13.3177,6617
13.3234,6711
13.3291,6455
13.3348,7272
13.3406,6737
13.3463,6430
13.352,6696
13.3577,7075
13.3634,6314
13.3692,7261
13.3749,6969
13.3806,7369
13.3863,7322
13.3921,7027
13.3978,7246
13.4035,8253
13.4092,7664
13.4149,7242
13.4207,6957
13.4264,6653
13.4321,8262
13.4378,6961
13.4436,7668
13.4493,7572
13.455,6832
13.4607,7478
13.4664,6092
13.4722,6855
13.4779,7100
13.4836,7437
13.4893,7934
13.4951,6812
13.5008,7704
13.5065,7835
13.5122,6180
13.5179,7375
13.5237,6276
13.5294,6970
13.5351,7902
13.5408,7815
13.5466,6741
13.5523,6544
13.558,7511
13.5637,8056
13.5694,6315
13.5752,7067
13.5809,7356
13.5866,7097
13.5923,6641
13.598,8545
13.6038,7744
13.6095,6721
13.6152,8468
13.6209,8286
13.6267,7454
13.6324,9410
13.6381,7963
13.6438,7530
13.6495,7841
13.6553,8799
13.661,7047
13.6667,8328
13.6724,7967
13.6782,7703
13.6839,7027
13.6896,7368
13.6953,7426
13.701,6994
13.7068,7275
13.7125,7158
13.7182,7314
13.7239,7910
13.7297,7416
13.7354,7734
13.7411,7860
13.7468,7572
13.7525,7808
13.7583,7909
13.764,8082
13.7697,7944
13.7754,8137
13.7812,7474
13.7869,6802
13.7926,8048
13.7983,7803
13.804,8084
13.8098,8183
13.8155,8235
13.8212,7622
13.8269,9257
13.8326,8070
13.8384,8509
13.8441,9602
13.8498,8369
13.8555,7985
13.8613,9117
13.867,8043
13.8727,8650
13.8784,7560
13.8841,7834
13.8899,8581
13.8956,7720
13.9013,7050
13.907,7846
13.9128,8943
13.9185,7496
13.9242,8388
13.9299,7742
13.9356,8592
13.9414,9420
13.9471,9552
13.9528,10351
13.9585,10451
13.9643,10749
13.97,9309
13.9757,8362
13.9814,8788
13.9871,7727
13.9929,7935
13.9986,7874
14.0043,8923
14.01,7166
14.0158,8608
14.0215,8999
14.0272,7568
14.0329,8651
14.0386,9307
14.0444,8227
14.0501,8464
14.0558,8936
14.0615,9261
14.0673,8567
14.073,7933
14.0787,9006
14.0844,8301
14.0901,9503
14.0959,9266
14.1016,9357
14.1073,8511
14.113,8309
14.1187,8783
14.1245,10018
14.1302,8315
14.1359,8854
14.1416,8956
14.1474,9181
14.1531,7561
14.1588,7848
14.1645,8536
14.1702,8320
14.176,8404
14.1817,8081
14.1874,9239
14.1931,9041
14.1989,9016
14.2046,7813
14.2103,8742
14.216,8975
14.2217,9019
14.2275,8987
14.2332,8615
14.2389,8661
14.2446,8169
14.2504,8714
14.2561,8212
14.2618,8694
14.2675,8682
14.2732,9287
14.279,8634
14.2847,10239
14.2904,9441
14.2961,9892
14.3019,9452
14.3076,9314
14.3133,9587
14.319,9087
14.3247,8658
14.3305,9376
14.3362,9311
14.3419,9884
14.3476,7734
14.3533,9330
14.3591,9003
14.3648,9684
14.3705,9467
14.3762,9456
14.382,10400
14.3877,8022
14.3934,9968
14.3991,9409
14.4048,10294
14.4106,10640
14.4163,9690
14.422,10510
14.4277,10150
14.4335,10326
14.4392,10469
14.4449,9785
14.4506,9111
14.4563,9771
14.4621,10215
14.4678,11009
14.4735,10184
14.4792,10046
14.485,10532
14.4907,12431
14.4964,11183
14.5021,11137
14.5078,9998
14.5136,10850
14.5193,10123
14.525,10986
14.5307,11103
14.5365,10666
14.5422,11243
14.5479,10394
14.5536,11386
14.5593,10498
14.5651,10677
14.5708,10865
14.5765,10393
14.5822,10968
14.5879,11570
14.5937,10059
14.5994,10845
14.6051,10269
14.6108,10897
14.6166,9653
14.6223,11388
14.628,10548
14.6337,10454
14.6394,11688
14.6452,11418
14.6509,10798
14.6566,11389
14.6623,11922
14.6681,11261
14.6738,12748
14.6795,11666
14.6852,11958
14.6909,11557
14.6967,10058
14.7024,10432
14.7081,11446
14.7138,11995
14.7196,11705
14.7253,11085
14.731,11919
14.7367,12357
14.7424,11925
14.7482,11389
14.7539,11509
14.7596,11786
14.7653,11605
14.7711,12068
14.7768,12432
14.7825,11883
14.7882,11932
14.7939,12944
14.7997,12154
14.8054,13332
14.8111,12681
14.8168,12090
14.8226,11816
14.8283,13009
14.834,14632
14.8397,11926
14.8454,12251
14.8512,12585
14.8569,13509
14.8626,12908
14.8683,12830
14.874,12916
14.8798,13037
14.8855,12455
14.8912,13044
14.8969,13621
14.9027,15412
14.9084,16781
14.9141,14889
14.9198,14798
14.9255,12613
14.9313,13841
14.937,14509
14.9427,16271
14.9484,15265
14.9542,14968
14.9599,15836
14.9656,14089
14.9713,14361
14.977,14448
14.9828,13612
14.9885,14164
14.9942,14754
14.9999,13137
15.0057,15177
15.0114,14394
15.0171,14599
15.0228,14026
15.0285,14035
15.0343,14955
15.04,15426
15.0457,15828
15.0514,15504
15.0572,14982
15.0629,14369
15.0686,14341
15.0743,14483
15.08,16268
15.0858,14660
15.0915,16473
15.0972,15105
15.1029,15008
15.1086,14988
15.1144,16174
15.1201,16027
15.1258,15250
15.1315,16183
15.1373,16098
15.143,15467
15.1487,16655
15.1544,15739
15.1601,14619
15.1659,15762
15.1716,15355
15.1773,15922
15.183,15959
15.1888,16753
15.1945,18253
15.2002,14630
15.2059,15484
15.2116,15805
15.2174,16306
15.2231,16191
15.2288,15917
15.2345,16127
15.2403,16957
15.246,16562
15.2517,16679
15.2574,16650
15.2631,17094
15.2689,16973
15.2746,17376
15.2803,16170
15.286,17054
15.2918,17176
15.2975,17410
15.3032,17339
15.3089,17405
15.3146,16748
15.3204,17114
15.3261,16496
15.3318,17793
15.3375,17284
15.3432,18056
15.349,18072
15.3547,17716
15.3604,16969
15.3661,17007
15.3719,17966
15.3776,18578
15.3833,18066
15.389,18956
15.3947,17878
15.4005,17457
15.4062,18168
15.4119,18802
15.4176,18008
15.4234,18566
15.4291,17549
15.4348,18240
15.4405,16868
15.4462,17362
15.452,17968
15.4577,18926
15.4634,17998
15.4691,18353
15.4749,18375
15.4806,19889
15.4863,19974
15.492,20508
15.4977,19666
15.5035,17928
15.5092,20507
15.5149,18631
15.5206,20980
15.5264,19812
15.5321,19939
15.5378,19524
15.5435,18196
15.5492,19465
15.555,19078
15.5607,21091
15.5664,19641
15.5721,20546
15.5779,19764
15.5836,19355
15.5893,21006
15.595,21347
15.6007,21795
15.6065,20775
15.6122,21431
15.6179,19198
15.6236,21057
15.6293,21005
15.6351,19090
15.6408,18925
15.6465,21507
15.6522,20625
15.658,21210
15.6637,21077
15.6694,21872
15.6751,22111
15.6808,21555
15.6866,21529
15.6923,21586
15.698,20966
15.7037,21213
15.7095,21108
15.7152,21205
15.7209,22071
15.7266,22603
15.7323,23064
15.7381,22865
15.7438,24514
15.7495,22382
15.7552,23997
15.761,23418
15.7667,22896
15.7724,23262
15.7781,21918
15.7838,24600
15.7896,23125
15.7953,24096
15.801,23812
15.8067,24982
15.8125,25045
15.8182,24278
15.8239,23829
15.8296,24711
15.8353,23370
15.8411,26389
15.8468,23053
15.8525,24723
15.8582,24299
15.8639,25917
15.8697,27584
15.8754,26742
15.8811,28003
15.8868,29276
15.8926,28143
15.8983,26876
15.904,26257
15.9097,27285
15.9154,26832
15.9212,27997
15.9269,26615
15.9326,28025
15.9383,26255
15.9441,28604
15.9498,25835
15.9555,27128
15.9612,27387
15.9669,28153
15.9727,28481
15.9784,26129
15.9841,26797
15.9898,26984
15.9956,27930
16.0013,29538
16.007,28614
16.0127,29372
16.0184,29725
16.0241,29890
16.0299,30279
16.0356,29886
16.0413,31101
16.047,30171
16.0528,29061
16.0585,29728
16.0642,30226
16.0699,31007
16.0757,29076
16.0814,28412
16.0871,30907
16.0928,30245
16.0985,30775
16.1043,31291
16.11,29761
16.1157,30383
16.1214,29503
16.1272,30792
16.1329,30318
16.1386,30189
16.1443,32464
16.15,32353
16.1558,32387
16.1615,33173
16.1672,33862
16.1729,33905
16.1787,32449
16.1844,31679
16.1901,32598
16.1958,34143
16.2015,32401
16.2073,34167
16.213,33508
16.2187,32393
16.2244,32140
16.2301,33284
16.2359,33393
16.2416,34053
16.2473,33731
16.253,33554
16.2587,32385
16.2645,34664
16.2702,32036
16.2759,32768
16.2816,32312
16.2874,34487
16.2931,34749
16.2988,34918
16.3045,34263
16.3103,34622
16.316,35245
16.3217,33515
16.3274,32819
16.3332,36366
16.3389,34078
16.3446,35031
16.3503,36523
16.356,37423
16.3618,36893
16.3675,35536
16.3732,34738
16.3789,36992
16.3846,36160
16.3904,35301
16.3961,35627
16.4018,36853
16.4075,36039
16.4133,34580
16.419,35350
16.4247,36635
16.4304,37249
16.4361,36440
16.4419,35587
16.4476,36076
16.4533,38353
16.459,37181
16.4647,38653
16.4705,38976
16.4762,37719
16.4819,38521
16.4876,38854
16.4934,38111
16.4991,39155
16.5048,40721
16.5105,39718
16.5162,40099
16.522,41649
16.5277,39870
16.5334,41200
16.5391,43166
16.5449,40179
16.5506,40811
16.5563,41806
16.562,41281
16.5678,40354
16.5735,43116
16.5792,42148
16.5849,40868
16.5906,42776
16.5964,43410
16.6021,41938
16.6078,44442
16.6135,42924
16.6192,42581
16.625,44068
16.6307,42552
16.6364,42791
16.6421,42563
16.6478,41775
16.6536,42059
16.6593,44030
16.665,43532
16.6707,43097
16.6765,45051
16.6822,41069
16.6879,44901
16.6936,45702
16.6993,46768
16.7051,44248
16.7108,46099
16.7165,46076
16.7222,44070
16.728,46523
16.7337,46165
16.7394,47891
16.7451,48356
16.7509,48686
16.7566,50073
16.7623,49618
16.768,47531
16.7737,45828
16.7795,47265
16.7852,46573
16.7909,48424
16.7966,47549
16.8024,48324
16.8081,49355
16.8138,48174
16.8195,50500
16.8252,49187
16.831,48916
16.8367,48851
16.8424,49376
16.8481,49425
16.8539,50682
16.8596,50372
16.8653,49386
16.871,51582
16.8767,50060
16.8824,50224
16.8882,54359
16.8939,50508
16.8996,51382
16.9053,49661
16.9111,52091
16.9168,52454
16.9225,53163
16.9282,51193
16.9339,55643
16.9397,50283
16.9454,51156
16.9511,54801
16.9568,55072
16.9626,53402
16.9683,53769
16.974,54774
16.9797,53145
16.9855,52785
16.9912,53944
16.9969,55052
17.0026,55715
17.0083,54032
17.0141,53144
17.0198,55357
17.0255,53148
17.0312,54668
17.037,53652
17.0427,57172
17.0484,55984
17.0541,57843
17.0598,57036
17.0656,55961
17.0713,56606
17.077,54586
17.0827,56654
17.0885,55374
17.0942,55907
17.0999,55881
17.1056,56387
17.1113,56283
17.117,59514
17.1228,57784
17.1285,58322
17.1342,57229
17.1399,57929
17.1457,57348
17.1514,60222
17.1571,56551
17.1628,57714
17.1686,58377
17.1743,58243
17.18,59349
17.1857,60531
17.1914,58684
17.1972,58565
17.2029,59058
17.2086,58439
17.2143,57575
17.2201,58799
17.2258,57070
17.2315,61209
17.2372,60963
17.2429,61527
17.2487,60760
17.2544,60843
17.2601,62343
17.2658,60366
17.2716,58764
17.2773,59086
17.283,57830
17.2887,60387
17.2944,61901
17.3001,60514
17.3059,61943
17.3116,60850
17.3173,61113
17.323,57878
17.3288,62164
17.3345,58538
17.3402,58248
17.3459,56625
17.3516,60655
17.3574,60660
17.3631,61727
17.3688,61217
17.3745,60209
17.3803,61112
17.386,62084
17.3917,62462
17.3974,61821
17.4032,60081
17.4089,62452
17.4146,60797
17.4203,60531
17.426,62111
17.4318,61687
17.4375,64425
17.4432,62463
17.4489,63155
17.4547,60972
17.4604,63637
17.4661,64761
17.4718,63767
17.4775,63916
17.4833,61970
17.489,65829
17.4947,63961
17.5004,64620
17.5062,63147
17.5119,63511
17.5176,64304
17.5233,62916
17.529,63034
17.5348,61673
17.5405,64544
17.5462,62707
17.5519,65449
17.5577,62835
17.5634,62319
17.5691,64076
17.5748,64310
17.5805,63830
17.5863,66006
17.592,66311
17.5977,65293
17.6034,67566
17.6092,67351
17.6149,66474
17.6206,66941
17.6263,62819
17.632,64628
17.6378,65986
17.6435,64121
17.6492,66755
17.6549,64148
17.6606,65711
17.6664,66914
17.6721,64107
17.6778,66242
17.6835,64397
17.6893,63350
17.695,65005
17.7007,65030
17.7064,65397
17.7121,66362
17.7179,64795
17.7236,64113
17.7293,63298
17.735,66133
17.7408,65807
17.7465,63278
17.7522,63629
17.7579,64493
17.7636,67432
17.7693,65495
17.7751,67010
17.7808,65494
17.7865,65242
17.7922,66125
17.798,66466
17.8037,66487
17.8094,63299
17.8151,65927
17.8209,65250
17.8266,67789
17.8323,68201
17.838,68191
17.8438,67243
17.8495,67269
17.8552,65948
17.8609,66181
17.8666,65942
17.8724,65594
17.8781,68518
17.8838,66569
17.8895,66859
17.8952,68496
17.901,67856
17.9067,67228
17.9124,67712
17.9181,65159
17.9239,67466
17.9296,64286
17.9353,68963
17.941,66818
17.9467,70256
17.9525,67693
17.9582,64675
17.9639,67863
17.9696,68106
17.9754,68884
17.9811,66910
17.9868,67823
17.9925,67026
