C:\MSDCHEM\1\DATA\JAMES C\20180125 LACTONE WITH BME AND HYDROXYLAMINE\C 20min.d 25 Jan 18   4:19 pm
Start of data points
3.09265,16073
3.09838,16347
3.1041,16145
3.10982,17098
3.11555,16811
3.12127,16431
3.12698,17020
3.13272,15744
3.13843,15728
3.14415,16160
3.14988,16066
3.1556,16673
3.16132,15623
3.16703,17489
3.17277,15004
3.17848,16133
3.1842,18653
3.18993,18245
3.19565,16881
3.20137,17096
3.2071,15728
3.21282,16592
3.21853,16808
3.22427,17054
3.22998,15265
3.2357,16649
3.24143,16161
3.24715,16293
3.25287,15721
3.2586,16357
3.26432,15809
3.27003,16716
3.27577,14309
3.28148,15197
3.2872,14357
3.29292,14550
3.29865,15530
3.30437,15740
3.31008,14292
3.31582,14512
3.32153,14952
3.32725,13841
3.33298,12443
3.3387,12732
3.34442,12560
3.35015,12662
3.35587,12968
3.36158,12377
3.36732,12207
3.37303,11930
3.37875,12057
3.38448,13379
3.3902,12382
3.39592,12682
3.40165,11505
3.40737,11465
3.41308,10034
3.4188,10538
3.42453,10049
3.43025,12097
3.43597,10912
3.4417,10028
3.44742,10181
3.45313,10428
3.45887,10138
3.46458,10238
3.4703,9708
3.47603,9738
3.48175,10006
3.48747,9445
3.4932,9571
3.49892,10829
3.50463,9770
3.51037,9429
3.51608,10339
3.5218,9687
3.52753,9440
3.53325,8857
3.53897,9282
3.54468,9641
3.55042,8371
3.55613,8696
3.56185,9595
3.56758,9458
3.5733,9194
3.57902,8048
3.58475,8943
3.59047,9480
3.59618,9168
3.60192,8668
3.60763,7797
3.61335,9296
3.61908,8719
3.6248,8696
3.63052,7993
3.63625,9247
3.64197,7996
3.64768,8515
3.65342,8136
3.65913,8928
3.66485,7813
3.67057,7804
3.6763,8597
3.68202,7872
3.68773,7788
3.69347,7244
3.69918,7721
3.7049,7384
3.71063,8116
3.71635,7772
3.72207,7293
3.7278,7361
3.73352,8059
3.73923,8088
3.74497,6841
3.75068,7551
3.7564,8192
3.76213,7133
3.76785,7123
3.77357,7758
3.7793,7048
3.78502,7938
3.79073,7177
3.79645,6694
3.80218,7695
3.8079,7418
3.81362,6940
3.81935,5715
3.82507,6959
3.83078,7261
3.83652,6633
3.84223,5801
3.84795,6556
3.85368,6870
3.8594,7088
3.86512,6943
3.87085,6943
3.87657,6868
3.88228,7259
3.88802,6979
3.89373,6221
3.89945,6909
3.90518,6270
3.9109,6436
3.91662,6623
3.92233,6355
3.92807,6258
3.93378,7218
3.9395,7138
3.94523,6694
3.95095,6418
3.95667,6585
3.9624,6614
3.96812,6392
3.97383,5893
3.97957,6773
3.98528,5895
3.991,5733
3.99673,5545
4.00245,5882
4.00817,6196
4.0139,6267
4.01962,6571
4.02533,6288
4.03107,5911
4.03678,5969
4.0425,5310
4.04823,5809
4.05395,5741
4.05967,5742
4.06538,4748
4.07112,5945
4.07683,6060
4.08255,5816
4.08828,5448
4.094,5743
4.09972,6302
4.10545,6903
4.11117,5622
4.11688,6319
4.12262,6361
4.12833,5953
4.13405,5714
4.13978,4976
4.1455,5910
4.15122,5475
4.15695,5637
4.16267,4716
4.16838,5575
4.17412,5520
4.17983,6299
4.18555,5966
4.19127,5245
4.197,5632
4.20272,4830
4.20843,5075
4.21417,5315
4.21988,5726
4.2256,6177
4.23133,4870
4.23705,4887
4.24277,5046
4.2485,4938
4.25422,5281
4.25993,6086
4.26567,5648
4.27138,4283
4.2771,5495
4.28283,6316
4.28855,4474
4.29427,5452
4.3,5028
4.30572,3851
4.31143,5749
4.31715,5189
4.32288,4582
4.3286,4404
4.33432,4788
4.34005,5172
4.34577,4981
4.35148,5210
4.35722,4745
4.36293,5056
4.36865,4639
4.37438,4593
4.3801,4237
4.38582,5147
4.39155,4289
4.39727,4370
4.40298,4816
4.40872,4000
4.41443,5294
4.42015,4919
4.42588,4235
4.4316,5196
4.43732,4580
4.44303,4457
4.44877,4354
4.45448,4356
4.4602,5290
4.46593,4916
4.47165,4307
4.47737,4500
4.4831,3774
4.48882,4326
4.49453,3940
4.50027,3740
4.50598,3771
4.5117,4207
4.51743,4260
4.52315,5066
4.52887,4356
4.5346,5205
4.54032,4609
4.54603,4192
4.55177,4431
4.55748,4967
4.5632,4293
4.56892,4265
4.57465,4187
4.58037,4998
4.58608,4269
4.59182,4704
4.59753,5037
4.60325,4743
4.60898,5147
4.6147,4164
4.62042,4753
4.62615,4912
4.63187,4006
4.63758,4489
4.64332,4758
4.64903,3779
4.65475,4135
4.66048,4295
4.6662,4454
4.67192,4387
4.67765,3900
4.68337,4637
4.68908,4642
4.6948,4099
4.70053,4034
4.70625,4115
4.71197,5054
4.7177,3877
4.72342,5187
4.72913,3908
4.73487,4447
4.74058,4292
4.7463,4214
4.75203,4144
4.75775,4366
4.76347,4527
4.7692,3979
4.77492,3333
4.78063,3724
4.78637,4038
4.79208,4384
4.7978,4375
4.80353,4599
4.80925,3303
4.81497,4213
4.82068,3649
4.82642,4140
4.83213,3639
4.83785,3893
4.84358,3562
4.8493,3728
4.85502,3818
4.86075,4111
4.86647,3811
4.87218,3672
4.87792,3854
4.88363,3438
4.88935,5179
4.89508,3869
4.9008,4066
4.90652,3652
4.91225,3516
4.91797,4250
4.92368,3510
4.92942,3249
4.93513,3214
4.94085,3596
4.94657,4224
4.9523,3204
4.95802,3460
4.96373,3797
4.96947,3770
4.97518,4854
4.9809,3426
4.98663,4385
4.99235,3779
4.99807,3614
5.0038,4157
5.00952,4197
5.01523,3521
5.02097,3678
5.02668,4135
5.0324,4007
5.03813,3749
5.04385,3621
5.04957,4373
5.0553,3654
5.06102,3103
5.06673,3588
5.07245,3620
5.07818,4350
5.0839,3819
5.08962,3796
5.09535,3538
5.10107,4365
5.10678,4343
5.11252,3429
5.11823,3712
5.12395,3218
5.12968,3226
5.1354,3879
5.14112,3512
5.14685,4272
5.15257,2980
5.15828,2451
5.16402,3650
5.16973,4258
5.17545,3140
5.18118,3725
5.1869,3472
5.19262,3769
5.19833,3516
5.20407,3428
5.20978,3249
5.2155,4000
5.22123,3436
5.22695,3723
5.23267,2724
5.2384,4150
5.24412,3760
5.24983,4395
5.25557,3512
5.26128,3682
5.267,3404
5.27273,3517
5.27845,3199
5.28417,3110
5.2899,2917
5.29562,3302
5.30133,3759
5.30707,3424
5.31278,3413
5.3185,3249
5.32422,3237
5.32995,4101
5.33567,3149
5.34138,4193
5.34712,3295
5.35283,3561
5.35855,2732
5.36428,3658
5.37,3788
5.37572,3160
5.38145,3265
5.38717,3096
5.39288,3091
5.39862,3864
5.40433,3323
5.41005,4249
5.41578,3266
5.4215,3466
5.42722,4203
5.43295,4379
5.43867,4568
5.44438,4545
5.4501,4471
5.45583,5071
5.46155,4205
5.46727,3354
5.473,3272
5.47872,3775
5.48443,3719
5.49017,3954
5.49588,4359
5.5016,3233
5.50733,3668
5.51305,3363
5.51877,3103
5.5245,3013
5.53022,3281
5.53593,3072
5.54167,3240
5.54738,3150
5.5531,4347
5.55883,3852
5.56455,3233
5.57027,3074
5.57598,3631
5.58172,3979
5.58743,3629
5.59315,3737
5.59888,2824
5.6046,3193
5.61032,3636
5.61605,3230
5.62177,3325
5.62748,3249
5.63322,2839
5.63893,3618
5.64465,2680
5.65038,3676
5.6561,2556
5.66182,3821
5.66755,3338
5.67327,3424
5.67898,3098
5.68472,3313
5.69043,3710
5.69615,2538
5.70187,4276
5.7076,3603
5.71332,3459
5.71903,3341
5.72477,2929
5.73048,3219
5.7362,3494
5.74193,3093
5.74765,3645
5.75337,3670
5.7591,4365
5.76482,3171
5.77053,2797
5.77627,2848
5.78198,2184
5.7877,2620
5.79343,3581
5.79915,3359
5.80487,3523
5.8106,1938
5.81632,3115
5.82203,3138
5.82775,3220
5.83348,4006
5.8392,4076
5.84492,3598
5.85065,2636
5.85637,3144
5.86208,3111
5.86782,3458
5.87353,2957
5.87925,2485
5.88498,3172
5.8907,3152
5.89642,3741
5.90215,3040
5.90787,3231
5.91358,3114
5.91932,3783
5.92503,3205
5.93075,3156
5.93648,3392
5.9422,3021
5.94792,2766
5.95363,2962
5.95937,3117
5.96508,3036
5.9708,3556
5.97653,2289
5.98225,3172
5.98797,3116
5.9937,3103
5.99942,3494
6.00513,2002
6.01087,2737
6.01658,2620
6.0223,3128
6.02803,2885
6.03375,2615
6.03947,3635
6.0452,3369
6.05092,2435
6.05663,3578
6.06237,2059
6.06808,2708
6.0738,3498
6.07952,2993
6.08525,2610
6.09097,3150
6.09668,2742
6.10242,1907
6.10813,2632
6.11385,2604
6.11958,3366
6.1253,3345
6.13102,3712
6.13675,3653
6.14247,3870
6.14818,2276
6.15392,2566
6.15963,3577
6.16535,3456
6.17108,3752
6.1768,3027
6.18252,3565
6.18825,3163
6.19397,3120
6.19968,4110
6.2054,3113
6.21113,2764
6.21685,3565
6.22257,3118
6.2283,2573
6.23402,2934
6.23973,2960
6.24547,3379
6.25118,3040
6.2569,3035
6.26263,2348
6.26835,2574
6.27407,3045
6.2798,3870
6.28552,2775
6.29123,3516
6.29697,2701
6.30268,2534
6.3084,3040
6.31413,2777
6.31985,2977
6.32557,3148
6.33128,3248
6.33702,2537
6.34273,2923
6.34845,3509
6.35418,3118
6.3599,3311
6.36562,2913
6.37135,3867
6.37707,3486
6.38278,3278
6.38852,2966
6.39423,2815
6.39995,2778
6.40568,3027
6.4114,2608
6.41712,2891
6.42285,3387
6.42857,2571
6.43428,3598
6.44002,3053
6.44573,3779
6.45145,2709
6.45717,3043
6.4629,3061
6.46862,2299
6.47433,3021
6.48007,2521
6.48578,2627
6.4915,2890
6.49723,3000
6.50295,2345
6.50867,2808
6.5144,3591
6.52012,3308
6.52583,3035
6.53157,3313
6.53728,2209
6.543,2858
6.54873,2601
6.55445,2864
6.56017,3157
6.5659,2608
6.57162,3159
6.57733,2251
6.58305,3713
6.58878,3688
6.5945,2766
6.60022,3477
6.60595,3274
6.61167,3712
6.61738,2761
6.62312,2729
6.62883,2096
6.63455,2773
6.64028,3213
6.646,2688
6.65172,3127
6.65745,2587
6.66317,2789
6.66888,3397
6.67462,3403
6.68033,3210
6.68605,2845
6.69178,2843
6.6975,3838
6.70322,3637
6.70893,3385
6.71467,3082
6.72038,3468
6.7261,3845
6.73183,3286
6.73755,3423
6.74327,3976
6.749,3008
6.75472,4066
6.76043,4151
6.76617,2800
6.77188,3644
6.7776,3937
6.78333,3510
6.78905,3146
6.79477,4150
6.8005,3369
6.80622,3691
6.81193,3279
6.81767,3436
6.82338,2872
6.8291,3048
6.83482,2904
6.84055,2331
6.84627,3140
6.85198,3402
6.85772,3148
6.86343,3604
6.86915,2922
6.87488,2726
6.8806,3269
6.88632,3552
6.89205,2990
6.89777,2943
6.90348,3300
6.90922,2836
6.91493,3629
6.92065,2856
6.92638,3309
6.9321,3704
6.93782,3134
6.94355,3497
6.94927,3046
6.95498,3322
6.9607,2869
6.96643,3169
6.97215,3188
6.97787,2622
6.9836,3396
6.98932,2993
6.99503,3109
7.00077,2873
7.00648,2841
7.0122,3397
7.01793,2481
7.02365,2127
7.02937,2914
7.0351,2903
7.04082,3556
7.04653,2939
7.05227,3049
7.05798,2686
7.0637,2889
7.06943,2696
7.07515,3258
7.08087,3049
7.08658,3303
7.09232,3044
7.09803,3922
7.10375,3665
7.10948,3883
7.1152,4437
7.12092,5130
7.12665,6014
7.13237,5444
7.13808,5395
7.14382,5751
7.14953,6405
7.15525,5163
7.16098,5086
7.1667,4383
7.17242,4883
7.17815,3940
7.18387,4324
7.18958,4017
7.19532,3847
7.20103,3094
7.20675,3245
7.21247,2804
7.2182,3951
7.22392,3434
7.22963,3424
7.23537,3604
7.24108,4128
7.2468,3466
7.25253,3228
7.25825,3614
7.26397,2810
7.2697,3486
7.27542,3185
7.28113,3904
7.28687,3252
7.29258,3603
7.2983,4626
7.30403,5379
7.30975,5204
7.31547,6160
7.3212,6333
7.32692,5850
7.33263,3920
7.33835,4566
7.34408,3842
7.3498,3327
7.35552,3936
7.36125,3725
7.36697,4178
7.37268,3222
7.37842,3159
7.38413,3596
7.38985,3104
7.39558,3156
7.4013,2492
7.40702,3478
7.41275,3173
7.41847,3422
7.42418,3305
7.42992,3326
7.43563,3504
7.44135,3180
7.44708,3189
7.4528,2500
7.45852,2539
7.46423,3031
7.46997,3227
7.47568,3638
7.4814,4252
7.48713,3555
7.49285,2271
7.49857,3448
7.5043,3025
7.51002,3507
7.51573,3201
7.52147,2663
7.52718,3127
7.5329,2557
7.53863,3010
7.54435,3410
7.55007,3416
7.5558,3651
7.56152,3070
7.56723,3365
7.57297,3782
7.57868,3154
7.5844,2968
7.59013,2969
7.59585,2291
7.60157,4050
7.60728,3552
7.61302,2904
7.61873,3073
7.62445,3744
7.63018,3195
7.6359,3344
7.64162,3595
7.64735,3377
7.65307,3101
7.65878,3631
7.66452,3412
7.67023,3929
7.67595,3357
7.68168,3100
7.6874,3571
7.69312,3843
7.69885,4707
7.70457,3150
7.71028,3725
7.71602,3918
7.72173,4292
7.72745,4452
7.73317,4454
7.7389,4160
7.74462,3768
7.75033,4012
7.75607,4573
7.76178,4111
7.7675,3134
7.77323,2941
7.77895,3402
7.78467,3119
7.7904,3554
7.79612,3470
7.80183,3488
7.80757,3910
7.81328,2808
7.819,3227
7.82473,3983
7.83045,3867
7.83617,3876
7.8419,2984
7.84762,3271
7.85333,3682
7.85905,3652
7.86478,3897
7.8705,4133
7.87622,3778
7.88195,4050
7.88767,3379
7.89338,4042
7.89912,3703
7.90483,3458
7.91055,3957
7.91628,3450
7.922,4153
7.92772,4209
7.93345,3260
7.93917,3203
7.94488,3186
7.95062,3148
7.95633,3322
7.96205,3284
7.96778,3711
7.9735,4000
7.97922,3306
7.98493,4461
7.99067,2994
7.99638,4582
8.0021,3888
8.00783,4239
8.01355,3446
8.01927,3973
8.025,3336
8.03072,3342
8.03643,5400
8.04217,3798
8.04788,2809
8.0536,3581
8.05933,2950
8.06505,3946
8.07077,3862
8.0765,3047
8.08222,3465
8.08793,2940
8.09367,3214
8.09938,3305
8.1051,3416
8.11082,3306
8.11655,4090
8.12227,4091
8.12798,4176
8.13372,3726
8.13943,3498
8.14515,3476
8.15088,3667
8.1566,3422
8.16232,4102
8.16805,3593
8.17377,3201
8.17948,3217
8.18522,3671
8.19093,3499
8.19665,3064
8.20238,3778
8.2081,3735
8.21382,3763
8.21955,4100
8.22527,3360
8.23098,3769
8.2367,4668
8.24243,4259
8.24815,3490
8.25387,3873
8.2596,3770
8.26532,3221
8.27103,4056
8.27677,3458
8.28248,3693
8.2882,3674
8.29393,4107
8.29965,3756
8.30537,4128
8.3111,3349
8.31682,3209
8.32253,4036
8.32827,4631
8.33398,3395
8.3397,3888
8.34543,3782
8.35115,3183
8.35687,3485
8.36258,3968
8.36832,3956
8.37403,4634
8.37975,4342
8.38548,3881
8.3912,3997
8.39692,3145
8.40265,3239
8.40837,3548
8.41408,3697
8.41982,3898
8.42553,4397
8.43125,4223
8.43698,3527
8.4427,3831
8.44842,3426
8.45415,4397
8.45987,3769
8.46558,3569
8.47132,3615
8.47703,4529
8.48275,4186
8.48847,3983
8.4942,4074
8.49992,3638
8.50563,3568
8.51137,3374
8.51708,3548
8.5228,4354
8.52853,3389
8.53425,3621
8.53997,3137
8.5457,3539
8.55142,3091
8.55713,3621
8.56287,4614
8.56858,4467
8.5743,3485
8.58003,4021
8.58575,3148
8.59147,3913
8.5972,3716
8.60292,3367
8.60863,4507
8.61435,3773
8.62008,3529
8.6258,3783
8.63152,4505
8.63725,4097
8.64297,3922
8.64868,3881
8.65442,4782
8.66013,3348
8.66585,4315
8.67158,3516
8.6773,3540
8.68302,4005
8.68875,3591
8.69447,3215
8.70018,4229
8.70592,3550
8.71163,3421
8.71735,3768
8.72308,3553
8.7288,3648
8.73452,4227
8.74023,4083
8.74597,4798
8.75168,4145
8.7574,4067
8.76313,3834
8.76885,3666
8.77457,3685
8.7803,5006
8.78602,4633
8.79173,3752
8.79747,4506
8.80318,3143
8.8089,3440
8.81463,3856
8.82035,4188
8.82607,3650
8.8318,4076
8.83752,4455
8.84323,4231
8.84897,4559
8.85468,4293
8.8604,3415
8.86612,4681
8.87185,5155
8.87757,4160
8.88328,4567
8.88902,4915
8.89473,4721
8.90045,3975
8.90618,3998
8.9119,3788
8.91762,4357
8.92335,3878
8.92907,3657
8.93478,3788
8.94052,4619
8.94623,4160
8.95195,3953
8.95768,4298
8.9634,5589
8.96912,4477
8.97485,4228
8.98057,4908
8.98628,5987
8.992,8069
8.99773,9199
9.00345,8210
9.00917,8237
9.0149,5958
9.02062,5158
9.02633,5140
9.03207,3394
9.03778,4209
9.0435,4657
9.04923,3668
9.05495,4616
9.06067,4860
9.0664,3972
9.07212,3553
9.07783,4718
9.08357,4552
9.08928,4605
9.095,4237
9.10073,4099
9.10645,4734
9.11217,5195
9.11788,4022
9.12362,4408
9.12933,4530
9.13505,4267
9.14078,4427
9.1465,4361
9.15222,4313
9.15795,4511
9.16367,4142
9.16938,5309
9.17512,4761
9.18083,4680
9.18655,4544
9.19228,4175
9.198,4811
9.20372,4839
9.20945,4003
9.21517,3314
9.22088,3457
9.22662,5651
9.23233,4258
9.23805,4573
9.24377,4031
9.2495,3785
9.25522,3911
9.26093,4189
9.26667,4604
9.27238,3651
9.2781,4583
9.28383,4556
9.28955,4321
9.29527,4839
9.301,3903
9.30672,4776
9.31243,4963
9.31817,4971
9.32388,4023
9.3296,4192
9.33533,4307
9.34105,3992
9.34677,4908
9.3525,4084
9.35822,4227
9.36393,4403
9.36965,4411
9.37538,3787
9.3811,4516
9.38682,3699
9.39255,4119
9.39827,3939
9.40398,4318
9.40972,5511
9.41543,3705
9.42115,4028
9.42688,3867
9.4326,4884
9.43832,4289
9.44405,4116
9.44977,4824
9.45548,4152
9.46122,4328
9.46693,3879
9.47265,4790
9.47838,5111
9.4841,4377
9.48982,4695
9.49553,4326
9.50127,5016
9.50698,5255
9.5127,4293
9.51843,4954
9.52415,4051
9.52987,5039
9.5356,3536
9.54132,4366
9.54703,4867
9.55277,3677
9.55848,5025
9.5642,4560
9.56993,5172
9.57565,4559
9.58137,3854
9.5871,4491
9.59282,5416
9.59853,4377
9.60427,4031
9.60998,4714
9.6157,4549
9.62142,4510
9.62715,5104
9.63287,4499
9.63858,5399
9.64432,4858
9.65003,4480
9.65575,4686
9.66148,5496
9.6672,5230
9.67292,6197
9.67865,5435
9.68437,5124
9.69008,4902
9.69582,5674
9.70153,4273
9.70725,5274
9.71298,4323
9.7187,4325
9.72442,5100
9.73015,5013
9.73587,4291
9.74158,4952
9.7473,4501
9.75303,4627
9.75875,4210
9.76447,4824
9.7702,5006
9.77592,4184
9.78163,5127
9.78737,4755
9.79308,4782
9.7988,4384
9.80453,5602
9.81025,4670
9.81597,4430
9.8217,3936
9.82742,5145
9.83313,4371
9.83887,5332
9.84458,4690
9.8503,5163
9.85603,5030
9.86175,4321
9.86747,4236
9.87318,4662
9.87892,4381
9.88463,4676
9.89035,5258
9.89608,5192
9.9018,4493
9.90752,4770
9.91325,4666
9.91897,5180
9.92468,4429
9.93042,4706
9.93613,5253
9.94185,4954
9.94758,5366
9.9533,4941
9.95902,4517
9.96475,4707
9.97047,5067
9.97618,5108
9.98192,4536
9.98763,4670
9.99335,5131
9.99907,4974
10.0048,5102
10.0105,4404
10.0162,5752
10.022,5367
10.0277,5552
10.0334,5211
10.0391,4930
10.0449,4749
10.0506,4662
10.0563,5327
10.062,4936
10.0677,4988
10.0735,4346
10.0792,4691
10.0849,5303
10.0906,4787
10.0964,4342
10.1021,4511
10.1078,5362
10.1135,4236
10.1192,5046
10.125,4723
10.1307,4643
10.1364,4733
10.1421,4377
10.1479,4811
10.1536,5109
10.1593,5103
10.165,4878
10.1707,4270
10.1765,5382
10.1822,5349
10.1879,4674
10.1936,4608
10.1994,4746
10.2051,5164
10.2108,4991
10.2165,4645
10.2222,5043
10.228,5428
10.2337,4516
10.2394,4177
10.2451,4935
10.2508,4287
10.2566,4835
10.2623,4917
10.268,4631
10.2737,4132
10.2795,5098
10.2852,5151
10.2909,4432
10.2966,4795
10.3023,4880
10.3081,4971
10.3138,4128
10.3195,4489
10.3252,4424
10.331,4950
10.3367,4985
10.3424,5177
10.3481,5433
10.3538,4650
10.3596,5091
10.3653,4330
10.371,4250
10.3767,5035
10.3825,4737
10.3882,4911
10.3939,4648
10.3996,4224
10.4053,4972
10.4111,4251
10.4168,4583
10.4225,4403
10.4282,6178
10.434,7678
10.4397,8805
10.4454,7556
10.4511,6896
10.4568,5509
10.4626,5589
10.4683,4803
10.474,4506
10.4797,4690
10.4855,4619
10.4912,4638
10.4969,4650
10.5026,5759
10.5083,6185
10.5141,5163
10.5198,4707
10.5255,5529
10.5312,4289
10.5369,4049
10.5427,5096
10.5484,5462
10.5541,4545
10.5598,4938
10.5656,4826
10.5713,4167
10.577,4251
10.5827,5650
10.5884,5566
10.5942,5141
10.5999,5296
10.6056,9276
10.6113,23570
10.6171,57666
10.6228,119732
10.6285,174570
10.6342,187623
10.6399,132057
10.6457,69251
10.6514,29568
10.6571,12971
10.6628,10052
10.6686,10109
10.6743,11080
10.68,14530
10.6857,13145
10.6914,10531
10.6972,7416
10.7029,6965
10.7086,6721
10.7143,4805
10.7201,5456
10.7258,6308
10.7315,5014
10.7372,5101
10.7429,6224
10.7487,4392
10.7544,5431
10.7601,5353
10.7658,5390
10.7715,5939
10.7773,5246
10.783,5394
10.7887,6057
10.7944,6038
10.8002,4916
10.8059,5580
10.8116,5305
10.8173,5880
10.823,5206
10.8288,4848
10.8345,5734
10.8402,6853
10.8459,6863
10.8517,8776
10.8574,9683
10.8631,6838
10.8688,6468
10.8745,6405
10.8803,5694
10.886,4792
10.8917,5890
10.8974,6530
10.9032,4747
10.9089,5432
10.9146,5048
10.9203,4868
10.926,5410
10.9318,5440
10.9375,5511
10.9432,5334
10.9489,5532
10.9547,5708
10.9604,5501
10.9661,5695
10.9718,5137
10.9775,4867
10.9833,5056
10.989,4777
10.9947,4979
11.0004,5267
11.0061,6175
11.0119,5672
11.0176,5252
11.0233,5840
11.029,4583
11.0348,5332
11.0405,5027
11.0462,5133
11.0519,4816
11.0576,4641
11.0634,5184
11.0691,5743
11.0748,5273
11.0805,5562
11.0863,4945
11.092,5726
11.0977,5178
11.1034,5003
11.1091,6908
11.1149,5357
11.1206,5529
11.1263,5342
11.132,5815
11.1378,6094
11.1435,6360
11.1492,5266
11.1549,5260
11.1606,5412
11.1664,5902
11.1721,6137
11.1778,5342
11.1835,6234
11.1893,6219
11.195,6074
11.2007,5999
11.2064,5448
11.2121,5844
11.2179,5565
11.2236,5641
11.2293,6558
11.235,6669
11.2408,6662
11.2465,7388
11.2522,7990
11.2579,9044
11.2636,9440
11.2694,9642
11.2751,10576
11.2808,9674
11.2865,9911
11.2922,9623
11.298,8675
11.3037,9353
11.3094,9068
11.3151,9557
11.3209,8861
11.3266,8519
11.3323,9086
11.338,8869
11.3437,8703
11.3495,8304
11.3552,8332
11.3609,8840
11.3666,9109
11.3724,9471
11.3781,8656
11.3838,9120
11.3895,8236
11.3952,7697
11.401,7496
11.4067,8038
11.4124,7676
11.4181,7995
11.4239,7473
11.4296,8344
11.4353,8109
11.441,7396
11.4467,7527
11.4525,7586
11.4582,7471
11.4639,7003
11.4696,8042
11.4754,6942
11.4811,8529
11.4868,7890
11.4925,7302
11.4982,7944
11.504,7758
11.5097,6992
11.5154,6893
11.5211,7302
11.5268,6698
11.5326,6821
11.5383,7785
11.544,8073
11.5497,7899
11.5555,7087
11.5612,7757
11.5669,6832
11.5726,7374
11.5783,7609
11.5841,7707
11.5898,7515
11.5955,5421
11.6012,6567
11.607,6676
11.6127,7352
11.6184,6797
11.6241,6611
11.6298,7174
11.6356,6034
11.6413,6163
11.647,7503
11.6527,6205
11.6585,6370
11.6642,6646
11.6699,6084
11.6756,6717
11.6813,6152
11.6871,6121
11.6928,6524
11.6985,7024
11.7042,7622
11.71,6631
11.7157,9008
11.7214,9565
11.7271,9722
11.7328,9176
11.7386,8134
11.7443,7312
11.75,5974
11.7557,7839
11.7615,6979
11.7672,5932
11.7729,6737
11.7786,6540
11.7843,8123
11.7901,6959
11.7958,6918
11.8015,6019
11.8072,5915
11.8129,6953
11.8187,6300
11.8244,6014
11.8301,6305
11.8358,6170
11.8416,6463
11.8473,7302
11.853,6156
11.8587,7759
11.8644,6450
11.8702,7333
11.8759,7607
11.8816,7026
11.8873,7600
11.8931,6522
11.8988,7064
11.9045,6826
11.9102,7820
11.9159,6429
11.9217,6636
11.9274,6614
11.9331,5825
11.9388,7221
11.9446,7009
11.9503,7530
11.956,6484
11.9617,6380
11.9674,7060
11.9732,6601
11.9789,6552
11.9846,6334
11.9903,5953
11.9961,7257
12.0018,5880
12.0075,6968
12.0132,6296
12.0189,7526
12.0247,7181
12.0304,6558
12.0361,6751
12.0418,6546
12.0475,6031
12.0533,6778
12.059,7324
12.0647,6565
12.0704,7202
12.0762,7439
12.0819,7414
12.0876,6869
12.0933,6418
12.099,6857
12.1048,6476
12.1105,6952
12.1162,6815
12.1219,7450
12.1277,9106
12.1334,10993
12.1391,13573
12.1448,12764
12.1505,11784
12.1563,8833
12.162,8318
12.1677,7953
12.1734,6254
12.1792,7264
12.1849,7340
12.1906,7346
12.1963,7414
12.202,6669
12.2078,7844
12.2135,7558
12.2192,7454
12.2249,7615
12.2307,7143
12.2364,6921
12.2421,7129
12.2478,6606
12.2535,7539
12.2593,6509
12.265,6869
12.2707,7580
12.2764,7613
12.2821,6506
12.2879,8213
12.2936,6673
12.2993,8149
12.305,8088
12.3108,8287
12.3165,7910
12.3222,7878
12.3279,8920
12.3336,7728
12.3394,8165
12.3451,8350
12.3508,7391
12.3565,8685
12.3623,8814
12.368,8616
12.3737,7936
12.3794,7394
12.3851,9616
12.3909,8155
12.3966,9341
12.4023,9083
12.408,9342
12.4138,9767
12.4195,9548
12.4252,9660
12.4309,10283
12.4366,9598
12.4424,10474
12.4481,9837
12.4538,11198
12.4595,10906
12.4653,11315
12.471,11259
12.4767,11619
12.4824,10291
12.4881,11755
12.4939,11524
12.4996,11258
12.5053,11821
12.511,11936
12.5168,11714
12.5225,10873
12.5282,10996
12.5339,12109
12.5396,10624
12.5454,13304
12.5511,11583
12.5568,11306
12.5625,12312
12.5682,12995
12.574,12317
12.5797,12086
12.5854,10807
12.5911,11393
12.5969,11437
12.6026,11550
12.6083,11474
12.614,12171
12.6197,13151
12.6255,12559
12.6312,13184
12.6369,11648
12.6426,11929
12.6484,12697
12.6541,12970
12.6598,13594
12.6655,12378
12.6712,12267
12.677,14020
12.6827,13865
12.6884,12450
12.6941,11759
12.6999,12794
12.7056,11900
12.7113,12705
12.717,13449
12.7227,13003
12.7285,11977
12.7342,11548
12.7399,11946
12.7456,12225
12.7514,11768
12.7571,11587
12.7628,12000
12.7685,13427
12.7742,12036
12.78,11261
12.7857,11386
12.7914,12627
12.7971,11469
12.8028,11879
12.8086,13323
12.8143,11036
12.82,11720
12.8257,13306
12.8315,11953
12.8372,11997
12.8429,11993
12.8486,12552
12.8543,12534
12.8601,12183
12.8658,12198
12.8715,11795
12.8772,11841
12.883,11700
12.8887,12423
12.8944,13362
12.9001,15227
12.9058,13830
12.9116,14234
12.9173,12715
12.923,11875
12.9287,12867
12.9345,12029
12.9402,12214
12.9459,12340
12.9516,12600
12.9573,12541
12.9631,11842
12.9688,11279
12.9745,12438
12.9802,12063
12.986,10720
12.9917,11203
12.9974,11240
13.0031,11241
13.0088,12529
13.0146,12460
13.0203,12077
13.026,10981
13.0317,11773
13.0374,10747
13.0432,10874
13.0489,11216
13.0546,11729
13.0603,10939
13.0661,10572
13.0718,11450
13.0775,12133
13.0832,11982
13.0889,11342
13.0947,11314
13.1004,11846
13.1061,12116
13.1118,11048
13.1176,11619
13.1233,10274
13.129,11262
13.1347,10182
13.1404,11846
13.1462,12106
13.1519,11222
13.1576,10879
13.1633,10487
13.1691,11962
13.1748,10362
13.1805,12522
13.1862,10661
13.1919,10298
13.1977,11024
13.2034,12041
13.2091,10639
13.2148,9834
13.2206,10853
13.2263,10569
13.232,11949
13.2377,11242
13.2434,11642
13.2492,10550
13.2549,10739
13.2606,11454
13.2663,11147
13.2721,11427
13.2778,11449
13.2835,10249
13.2892,10655
13.2949,10801
13.3007,11644
13.3064,11324
13.3121,11851
13.3178,11767
13.3235,11294
13.3293,12009
13.335,10696
13.3407,12052
13.3464,12577
13.3522,11696
13.3579,10452
13.3636,11609
13.3693,11776
13.375,12269
13.3808,11289
13.3865,11438
13.3922,12001
13.3979,11672
13.4037,11168
13.4094,11285
13.4151,11517
13.4208,10149
13.4265,11100
13.4323,11517
13.438,10804
13.4437,12195
13.4494,11638
13.4552,12183
13.4609,10455
13.4666,12581
13.4723,12398
13.478,11050
13.4838,12370
13.4895,12440
13.4952,12202
13.5009,11744
13.5067,10905
13.5124,11884
13.5181,12029
13.5238,12436
13.5295,10692
13.5353,10896
13.541,11869
13.5467,11358
13.5524,10707
13.5581,11144
13.5639,10827
13.5696,12512
13.5753,11332
13.581,13889
13.5868,12466
13.5925,11258
13.5982,12088
13.6039,11762
13.6096,12714
13.6154,11621
13.6211,11644
13.6268,11986
13.6325,11707
13.6383,11540
13.644,11776
13.6497,12913
13.6554,12191
13.6611,12343
13.6669,12237
13.6726,12300
13.6783,11853
13.684,11208
13.6898,12164
13.6955,12251
13.7012,11347
13.7069,12578
13.7126,11931
13.7184,12080
13.7241,12541
13.7298,10484
13.7355,11501
13.7413,12271
13.747,12096
13.7527,12025
13.7584,11810
13.7641,13375
13.7699,12492
13.7756,13097
13.7813,12976
13.787,12467
13.7927,12299
13.7985,11802
13.8042,11946
13.8099,11230
13.8156,12963
13.8214,12689
13.8271,12183
13.8328,14708
13.8385,11199
13.8442,12297
13.85,11327
13.8557,11992
13.8614,12562
13.8671,11698
13.8729,12220
13.8786,11664
13.8843,12375
13.89,11743
13.8957,12450
13.9015,12680
13.9072,12293
13.9129,12834
13.9186,13337
13.9244,13024
13.9301,13935
13.9358,12840
13.9415,13327
13.9472,13510
13.953,13804
13.9587,12640
13.9644,14720
13.9701,13891
13.9759,15401
13.9816,15610
13.9873,13990
13.993,14683
13.9987,13257
14.0045,12619
14.0102,13967
14.0159,13578
14.0216,12650
14.0274,11813
14.0331,12393
14.0388,13323
14.0445,13794
14.0502,13060
14.056,11706
14.0617,13351
14.0674,13238
14.0731,13647
14.0788,13215
14.0846,13899
14.0903,13301
14.096,13100
14.1017,13516
14.1075,12589
14.1132,13073
14.1189,13319
14.1246,12577
14.1303,12659
14.1361,11655
14.1418,14360
14.1475,13660
14.1532,14003
14.159,14264
14.1647,15276
14.1704,16070
14.1761,13662
14.1818,13855
14.1876,12683
14.1933,13204
14.199,13390
14.2047,13862
14.2105,13759
14.2162,13045
14.2219,12937
14.2276,12547
14.2333,13720
14.2391,12463
14.2448,14149
14.2505,15284
14.2562,13780
14.262,14157
14.2677,13277
14.2734,14059
14.2791,13778
14.2848,14096
14.2906,14337
14.2963,13686
14.302,14427
14.3077,14506
14.3134,14208
14.3192,14131
14.3249,14581
14.3306,14740
14.3363,14486
14.3421,15375
14.3478,14629
14.3535,14293
14.3592,14465
14.3649,15198
14.3707,13517
14.3764,15236
14.3821,14497
14.3878,15686
14.3936,16576
14.3993,16085
14.405,14926
14.4107,14867
14.4164,15468
14.4222,15961
14.4279,16880
14.4336,16308
14.4393,15572
14.4451,15761
14.4508,16176
14.4565,16380
14.4622,16823
14.4679,14583
14.4737,15049
14.4794,14923
14.4851,16484
14.4908,16778
14.4966,15608
14.5023,16933
14.508,16650
14.5137,17141
14.5194,16760
14.5252,17939
14.5309,17915
14.5366,17051
14.5423,16495
14.548,18203
14.5538,18329
14.5595,18584
14.5652,18316
14.5709,16367
14.5767,16049
14.5824,17691
14.5881,18878
14.5938,16571
14.5995,17713
14.6053,16773
14.611,17577
14.6167,17664
14.6224,17142
14.6282,17128
14.6339,18006
14.6396,18761
14.6453,18100
14.651,17203
14.6568,18607
14.6625,16281
14.6682,18220
14.6739,18974
14.6797,17040
14.6854,18683
14.6911,17744
14.6968,19783
14.7025,19867
14.7083,19866
14.714,17865
14.7197,18775
14.7254,19163
14.7312,20195
14.7369,18495
14.7426,18811
14.7483,18897
14.754,18811
14.7598,18333
14.7655,19911
14.7712,19451
14.7769,20155
14.7827,18476
14.7884,19523
14.7941,20393
14.7998,20847
14.8055,19164
14.8113,20757
14.817,19963
14.8227,20016
14.8284,19365
14.8341,19275
14.8399,20815
14.8456,20412
14.8513,21915
14.857,20821
14.8628,21600
14.8685,21133
14.8742,20926
14.8799,19893
14.8856,22291
14.8914,21696
14.8971,22788
14.9028,22072
14.9085,24073
14.9143,21997
14.92,21761
14.9257,23869
14.9314,22631
14.9371,22776
14.9429,24604
14.9486,23562
14.9543,25622
14.96,25118
14.9658,27001
14.9715,26066
14.9772,26598
14.9829,25453
14.9886,23206
14.9944,23729
15.0001,23372
15.0058,25683
15.0115,23066
15.0173,24654
15.023,25233
15.0287,24196
15.0344,25389
15.0401,22631
15.0459,25968
15.0516,24625
15.0573,26234
15.063,26371
15.0687,26448
15.0745,25695
15.0802,25322
15.0859,25779
15.0916,25099
15.0974,25727
15.1031,25953
15.1088,26656
15.1145,26483
15.1202,26570
15.126,26021
15.1317,27101
15.1374,26981
15.1431,26315
15.1489,26893
15.1546,27169
15.1603,28279
15.166,26683
15.1717,26594
15.1775,27309
15.1832,28532
15.1889,27881
15.1946,29583
15.2004,26348
15.2061,27856
15.2118,29376
15.2175,28986
15.2232,29527
15.229,29045
15.2347,26864
15.2404,30322
15.2461,28804
15.2519,29928
15.2576,29343
15.2633,29237
15.269,31010
15.2747,30093
15.2805,29362
15.2862,31217
15.2919,31246
15.2976,31479
15.3034,29674
15.3091,32961
15.3148,29232
15.3205,32703
15.3262,31308
15.332,29316
15.3377,30468
15.3434,31089
15.3491,29243
15.3548,30606
15.3606,30221
15.3663,31320
15.372,31903
15.3777,32159
15.3835,33273
15.3892,32332
15.3949,32049
15.4006,31864
15.4063,31753
15.4121,31746
15.4178,32432
15.4235,32133
15.4292,33428
15.435,33252
15.4407,33367
15.4464,34619
15.4521,32533
15.4578,34848
15.4636,34435
15.4693,32716
15.475,34761
15.4807,33950
15.4865,34785
15.4922,34197
15.4979,33936
15.5036,36052
15.5093,35904
15.5151,37620
15.5208,35341
15.5265,35885
15.5322,37141
15.538,35727
15.5437,35348
15.5494,37332
15.5551,35819
15.5608,37005
15.5666,38226
15.5723,36528
15.578,37905
15.5837,37832
15.5894,38208
15.5952,39055
15.6009,40426
15.6066,37828
15.6123,37912
15.6181,38547
15.6238,39723
15.6295,39162
15.6352,38511
15.6409,40045
15.6467,41430
15.6524,42618
15.6581,38564
15.6638,39703
15.6696,39185
15.6753,41215
15.681,40729
15.6867,41750
15.6924,41117
15.6982,40654
15.7039,42097
15.7096,41638
15.7153,41824
15.7211,43117
15.7268,42326
15.7325,42098
15.7382,42202
15.7439,44531
15.7497,42900
15.7554,44439
15.7611,43809
15.7668,43449
15.7726,43566
15.7783,45255
15.784,44953
15.7897,45941
15.7954,46786
15.8012,43897
15.8069,44840
15.8126,45762
15.8183,43145
15.824,45549
15.8298,46597
15.8355,46356
15.8412,46820
15.8469,46872
15.8527,47545
15.8584,46902
15.8641,46911
15.8698,46067
15.8755,49779
15.8813,47882
15.887,48025
15.8927,53737
15.8984,52086
15.9042,52168
15.9099,50516
15.9156,50675
15.9213,48834
15.927,50489
15.9328,50676
15.9385,49913
15.9442,49566
15.9499,48849
15.9557,51260
15.9614,50003
15.9671,50148
15.9728,53968
15.9785,52569
15.9843,54441
15.99,51376
15.9957,52448
16.0014,50686
16.0071,50980
16.0129,54426
16.0186,51080
16.0243,50463
16.03,53516
16.0358,52965
16.0415,55002
16.0472,54469
16.0529,56556
16.0587,53343
16.0644,55893
16.0701,56666
16.0758,55517
16.0815,57475
16.0873,57295
16.093,55317
16.0987,57136
16.1044,56909
16.1101,56723
16.1159,56517
16.1216,57878
16.1273,58537
16.133,57558
16.1388,58148
16.1445,59651
16.1502,57231
16.1559,57040
16.1616,60414
16.1674,59611
16.1731,60840
16.1788,63419
16.1845,59033
16.1902,61070
16.196,63983
16.2017,62758
16.2074,61243
16.2131,61375
16.2189,60818
16.2246,60905
16.2303,61611
16.236,65194
16.2418,61402
16.2475,63723
16.2532,61828
16.2589,62938
16.2646,63390
16.2704,63722
16.2761,63320
16.2818,64351
16.2875,65059
16.2933,67007
16.299,65481
16.3047,64602
16.3104,65471
16.3161,64137
16.3219,66716
16.3276,66805
16.3333,66770
16.339,66470
16.3447,68519
16.3505,68410
16.3562,71246
16.3619,70644
16.3676,69875
16.3733,67745
16.3791,67905
16.3848,68020
16.3905,70550
16.3962,70989
16.402,71625
16.4077,69855
16.4134,69074
16.4191,73142
16.4248,74282
16.4306,72070
16.4363,72063
16.442,72000
16.4477,73819
16.4535,73375
16.4592,75759
16.4649,72034
16.4706,73960
16.4764,73615
16.4821,73824
16.4878,73360
16.4935,76901
16.4992,75092
16.505,77773
16.5107,76049
16.5164,77239
16.5221,78350
16.5279,76047
16.5336,78156
16.5393,75851
16.545,78645
16.5507,77849
16.5565,78568
16.5622,77736
16.5679,80102
16.5736,80541
16.5793,81934
16.5851,81771
16.5908,81810
16.5965,82235
16.6022,82341
16.6079,82382
16.6137,81811
16.6194,83925
16.6251,82583
16.6308,84419
16.6366,83732
16.6423,83459
16.648,84152
16.6537,83581
16.6595,83810
16.6652,82806
16.6709,83487
16.6766,84907
16.6823,87891
16.6881,87118
16.6938,86244
16.6995,86120
16.7052,84853
16.711,87911
16.7167,91627
16.7224,86134
16.7281,86977
16.7338,88117
16.7396,92296
16.7453,91784
16.751,91223
16.7567,92382
16.7625,95246
16.7682,97860
16.7739,94848
16.7796,94517
16.7853,95348
16.791,96079
16.7968,91666
16.8025,95508
16.8082,93573
16.8139,91492
16.8197,93815
16.8254,94539
16.8311,95810
16.8368,96438
16.8425,97075
16.8483,97383
16.854,98441
16.8597,96832
16.8654,97282
16.8712,97698
16.8769,98136
16.8826,95753
16.8883,101706
16.8941,100483
16.8998,98134
16.9055,102699
16.9112,103016
16.9169,102313
16.9227,102283
16.9284,102042
16.9341,101704
16.9398,105887
16.9456,103980
16.9513,104624
16.957,102916
16.9627,104386
16.9684,102248
16.9742,103264
16.9799,108242
16.9856,106122
16.9913,107550
16.9971,107156
17.0028,108411
17.0085,108875
17.0142,107861
17.0199,111602
17.0256,108658
17.0314,110620
17.0371,109136
17.0428,108569
17.0485,106964
17.0543,108137
17.06,109239
17.0657,110339
17.0714,113617
17.0772,112369
17.0829,113812
17.0886,111477
17.0943,112661
17.1,111425
17.1058,112562
17.1115,112038
17.1172,115547
17.1229,111500
17.1287,113756
17.1344,113462
17.1401,113277
17.1458,114080
17.1515,115588
17.1573,111329
17.163,117940
17.1687,115008
17.1744,116562
17.1802,117092
17.1859,117327
17.1916,117148
17.1973,115881
17.203,116129
17.2087,113615
17.2145,114646
17.2202,115842
17.2259,117291
17.2316,117835
17.2374,125493
17.2431,117720
17.2488,118432
17.2545,120260
17.2602,122784
17.266,123574
17.2717,119097
17.2774,119803
17.2831,122408
17.2889,121920
17.2946,120320
17.3003,120315
17.306,121972
17.3118,119348
17.3175,120506
17.3232,122471
17.3289,125828
17.3346,124401
17.3404,123044
17.3461,124122
17.3518,123606
17.3575,119223
17.3633,125113
17.369,122698
17.3747,122472
17.3804,122037
17.3861,123051
17.3919,123774
17.3976,123127
17.4033,122022
17.409,127113
17.4148,126350
17.4205,125923
17.4262,121975
17.4319,124888
17.4376,123815
17.4434,125191
17.4491,124721
17.4548,126614
17.4605,123679
17.4662,121339
17.472,124977
17.4777,126279
17.4834,123599
17.4891,124716
17.4949,128240
17.5006,127335
17.5063,127048
17.512,125954
17.5177,125063
17.5235,128019
17.5292,126223
17.5349,126054
17.5406,127396
17.5464,129838
17.5521,131871
17.5578,128230
17.5635,129071
17.5693,128171
17.575,128526
17.5807,130505
17.5864,129581
17.5921,130405
17.5979,129625
17.6036,129930
17.6093,132408
17.615,132955
17.6207,135205
17.6265,134933
17.6322,132001
17.6379,130366
17.6436,129270
17.6494,130017
17.6551,129701
17.6608,129598
17.6665,129741
17.6722,130624
17.678,131149
17.6837,130919
17.6894,129647
17.6951,132065
17.7008,133294
17.7066,128677
17.7123,128974
17.718,129553
17.7237,131579
17.7295,128002
17.7352,131099
17.7409,132075
17.7466,132214
17.7524,128026
17.7581,132662
17.7638,129971
17.7695,131510
17.7752,132206
17.781,133682
17.7867,128960
17.7924,129896
17.7981,128484
17.8039,130175
17.8096,130077
17.8153,130500
17.821,131723
17.8267,134553
17.8325,133099
17.8382,133801
17.8439,133736
17.8496,128843
17.8553,130538
17.8611,131591
17.8668,133880
17.8725,137664
17.8782,133772
17.884,135791
17.8897,135161
17.8954,136051
17.9011,135611
17.9068,138094
17.9126,132676
17.9183,134858
17.924,138110
17.9297,136070
17.9354,139651
17.9412,135900
17.9469,133003
17.9526,131615
17.9583,136787
17.9641,137378
17.9698,134920
17.9755,136006
17.9812,132583
17.987,136809
17.9927,139467
