C:\MSDCHEM\1\DATA\MANDKHAI\20180626 MTH_C12COA\SLR_WT_NltAB_fresh_2.d 27 Jun 18  11:09 am
Start of data points
4.09268,1311
4.0984,1738
4.10412,1668
4.10985,1786
4.11557,1646
4.12128,1585
4.127,1537
4.13273,1658
4.13845,1315
4.14417,1520
4.1499,1440
4.15562,1424
4.16133,1269
4.16707,1533
4.17278,1238
4.1785,1248
4.18423,1362
4.18995,1493
4.19567,1439
4.2014,1467
4.20712,1222
4.21283,1383
4.21857,1384
4.22428,1287
4.23,1246
4.23573,1349
4.24145,1317
4.24717,1277
4.25288,1219
4.25862,1023
4.26433,1163
4.27005,1439
4.27578,1223
4.2815,1254
4.28722,958
4.29295,1171
4.29867,1005
4.30438,1055
4.31012,1118
4.31583,925
4.32155,1140
4.32728,1053
4.333,1092
4.33872,1143
4.34445,861
4.35017,1159
4.35588,795
4.36162,1015
4.36733,1001
4.37305,993
4.37877,1151
4.3845,938
4.39022,994
4.39593,1013
4.40167,740
4.40738,1012
4.4131,655
4.41883,973
4.42455,827
4.43027,807
4.436,764
4.44172,909
4.44743,729
4.45317,734
4.45888,851
4.4646,838
4.47033,760
4.47605,893
4.48177,834
4.4875,1002
4.49322,868
4.49893,1034
4.50465,862
4.51038,915
4.5161,613
4.52182,991
4.52755,1005
4.53327,757
4.53898,770
4.54472,1053
4.55043,1032
4.55615,751
4.56188,679
4.5676,733
4.57332,683
4.57905,599
4.58477,852
4.59048,552
4.59622,739
4.60193,975
4.60765,882
4.61338,678
4.6191,668
4.62482,702
4.63053,819
4.63627,980
4.64198,654
4.6477,833
4.65343,781
4.65915,827
4.66487,711
4.6706,883
4.67632,614
4.68203,620
4.68777,825
4.69348,602
4.6992,679
4.70493,780
4.71065,877
4.71637,300
4.7221,587
4.72782,443
4.73353,536
4.73927,761
4.74498,499
4.7507,706
4.75642,698
4.76215,674
4.76787,609
4.77358,510
4.77932,515
4.78503,538
4.79075,851
4.79648,542
4.8022,608
4.80792,297
4.81365,514
4.81937,605
4.82508,731
4.83082,771
4.83653,642
4.84225,479
4.84798,723
4.8537,553
4.85942,391
4.86515,338
4.87087,532
4.87658,453
4.8823,581
4.88803,524
4.89375,608
4.89947,555
4.9052,543
4.91092,759
4.91663,500
4.92237,485
4.92808,603
4.9338,254
4.93953,449
4.94525,575
4.95097,538
4.9567,588
4.96242,573
4.96813,486
4.97387,405
4.97958,480
4.9853,466
4.99103,317
4.99675,498
5.00247,585
5.00818,553
5.01392,489
5.01963,281
5.02535,498
5.03108,391
5.0368,456
5.04252,408
5.04825,454
5.05397,314
5.05968,291
5.06542,335
5.07113,475
5.07685,455
5.08258,425
5.0883,517
5.09402,423
5.09975,547
5.10547,454
5.11118,433
5.11692,226
5.12263,573
5.12835,205
5.13407,239
5.1398,517
5.14552,333
5.15123,460
5.15697,236
5.16268,204
5.1684,437
5.17413,477
5.17985,459
5.18557,392
5.1913,199
5.19702,442
5.20273,425
5.20847,481
5.21418,431
5.2199,465
5.22563,391
5.23135,293
5.23707,231
5.2428,489
5.24852,249
5.25423,409
5.25995,418
5.26568,398
5.2714,442
5.27712,347
5.28285,426
5.28857,529
5.29428,224
5.30002,194
5.30573,426
5.31145,447
5.31718,210
5.3229,0
5.32862,391
5.33435,515
5.34007,407
5.34578,186
5.35152,0
5.35723,557
5.36295,504
5.36868,172
5.3744,267
5.38012,375
5.38583,390
5.39157,403
5.39728,390
5.403,384
5.40873,211
5.41445,369
5.42017,161
5.4259,153
5.43162,400
5.43733,350
5.44307,193
5.44878,275
5.4545,376
5.46023,451
5.46595,173
5.47167,327
5.4774,277
5.48312,356
5.48883,204
5.49457,189
5.50028,243
5.506,219
5.51172,252
5.51745,413
5.52317,236
5.52888,317
5.53462,196
5.54033,332
5.54605,229
5.55178,390
5.5575,160
5.56322,303
5.56895,205
5.57467,419
5.58038,175
5.58612,321
5.59183,197
5.59755,391
5.60328,169
5.609,441
5.61472,240
5.62045,0
5.62617,264
5.63188,408
5.6376,338
5.64333,243
5.64905,431
5.65477,0
5.6605,206
5.66622,418
5.67193,229
5.67767,175
5.68338,0
5.6891,186
5.69483,365
5.70055,199
5.70627,231
5.712,209
5.71772,180
5.72343,165
5.72917,363
5.73488,206
5.7406,187
5.74633,0
5.75205,180
5.75777,361
5.76348,155
5.76922,196
5.77493,388
5.78065,0
5.78638,194
5.7921,0
5.79782,167
5.80355,501
5.80927,414
5.81498,244
5.82072,191
5.82643,0
5.83215,334
5.83788,366
5.8436,169
5.84932,164
5.85505,353
5.86077,0
5.86648,364
5.87222,215
5.87793,0
5.88365,0
5.88937,188
5.8951,243
5.90082,376
5.90653,0
5.91227,155
5.91798,168
5.9237,0
5.92943,330
5.93515,184
5.94087,411
5.9466,0
5.95232,155
5.95803,200
5.96377,376
5.96948,176
5.9752,154
5.98093,0
5.98665,0
5.99237,178
5.9981,337
6.00382,366
6.00953,0
6.01525,357
6.02098,0
6.0267,158
6.03242,205
6.03815,321
6.04387,339
6.04958,0
6.05532,181
6.06103,211
6.06675,179
6.07248,0
6.0782,0
6.08392,184
6.08965,163
6.09537,150
6.10108,164
6.10682,223
6.11253,0
6.11825,162
6.12398,176
6.1297,0
6.13542,0
6.14113,0
6.14687,0
6.15258,0
6.1583,0
6.16403,202
6.16975,0
6.17547,153
6.1812,0
6.18692,187
6.19263,208
6.19837,0
6.20408,342
6.2098,185
6.21553,0
6.22125,0
6.22697,187
6.2327,153
6.23842,171
6.24413,0
6.24987,174
6.25558,158
6.2613,184
6.26703,335
6.27275,0
6.27847,159
6.28418,0
6.28992,0
6.29563,0
6.30135,170
6.30708,160
6.3128,0
6.31852,185
6.32425,173
6.32997,166
6.33568,187
6.34142,0
6.34713,0
6.35285,0
6.35858,191
6.3643,169
6.37002,151
6.37575,0
6.38147,0
6.38718,175
6.39292,302
6.39863,0
6.40435,0
6.41007,0
6.4158,0
6.42152,0
6.42723,0
6.43297,0
6.43868,0
6.4444,0
6.45013,0
6.45585,0
6.46157,162
6.4673,0
6.47302,0
6.47873,0
6.48447,0
6.49018,0
6.4959,157
6.50163,208
6.50735,0
6.51307,0
6.5188,153
6.52452,0
6.53023,0
6.53595,0
6.54168,0
6.5474,0
6.55312,0
6.55885,0
6.56457,0
6.57028,198
6.57602,0
6.58173,153
6.58745,0
6.59318,0
6.5989,0
6.60462,168
6.61035,0
6.61607,153
6.62178,152
6.62752,153
6.63323,153
6.63895,0
6.64468,0
6.6504,0
6.65612,0
6.66183,0
6.66757,0
6.67328,0
6.679,0
6.68473,0
6.69045,0
6.69617,0
6.7019,0
6.70762,165
6.71333,0
6.71907,0
6.72478,0
6.7305,0
6.73623,0
6.74195,0
6.74767,151
6.7534,0
6.75912,204
6.76483,194
6.77057,0
6.77628,203
6.782,253
6.78772,187
6.79345,358
6.79917,230
6.80488,232
6.81062,176
6.81633,0
6.82205,0
6.82778,204
6.8335,0
6.83922,159
6.84495,194
6.85067,208
6.85638,167
6.86212,0
6.86783,0
6.87355,169
6.87928,156
6.885,172
6.89072,208
6.89645,0
6.90217,151
6.90788,154
6.9136,0
6.91933,307
6.92505,0
6.93077,0
6.9365,0
6.94222,0
6.94793,0
6.95367,0
6.95938,0
6.9651,0
6.97083,0
6.97655,0
6.98227,0
6.988,0
6.99372,0
6.99943,0
7.00517,187
7.01088,0
7.0166,0
7.02233,0
7.02805,0
7.03377,0
7.03948,0
7.04522,172
7.05093,0
7.05665,0
7.06238,0
7.0681,0
7.07382,0
7.07955,0
7.08527,0
7.09098,0
7.09672,0
7.10243,0
7.10815,165
7.11388,0
7.1196,0
7.12532,0
7.13105,0
7.13677,0
7.14248,0
7.14822,158
7.15393,178
7.15965,0
7.16537,0
7.1711,0
7.17682,0
7.18253,0
7.18827,0
7.19398,0
7.1997,0
7.20543,0
7.21115,0
7.21687,0
7.2226,0
7.22832,0
7.23403,0
7.23977,0
7.24548,0
7.2512,0
7.25693,0
7.26265,0
7.26837,0
7.2741,0
7.27982,0
7.28553,0
7.29125,0
7.29698,0
7.3027,159
7.30842,0
7.31415,0
7.31987,0
7.32558,0
7.33132,0
7.33703,0
7.34275,196
7.34848,0
7.3542,0
7.35992,0
7.36565,0
7.37137,0
7.37708,0
7.38282,0
7.38853,0
7.39425,0
7.39998,0
7.4057,0
7.41142,0
7.41713,0
7.42287,0
7.42858,0
7.4343,0
7.44003,171
7.44575,0
7.45147,0
7.4572,0
7.46292,0
7.46863,0
7.47437,0
7.48008,0
7.4858,0
7.49153,162
7.49725,0
7.50297,0
7.5087,153
7.51442,0
7.52013,0
7.52587,0
7.53158,0
7.5373,0
7.54302,157
7.54875,158
7.55447,0
7.56018,0
7.56592,0
7.57163,0
7.57735,0
7.58308,0
7.5888,0
7.59452,0
7.60025,0
7.60597,0
7.61168,0
7.61742,0
7.62313,0
7.62885,0
7.63458,0
7.6403,0
7.64602,0
7.65175,0
7.65747,0
7.66318,0
7.6689,151
7.67463,0
7.68035,0
7.68607,0
7.6918,0
7.69752,0
7.70323,0
7.70897,0
7.71468,0
7.7204,0
7.72613,0
7.73185,0
7.73757,0
7.7433,0
7.74902,0
7.75473,0
7.76047,0
7.76618,0
7.7719,0
7.77763,0
7.78335,0
7.78907,0
7.79478,0
7.80052,0
7.80623,0
7.81195,0
7.81768,0
7.8234,0
7.82912,0
7.83485,0
7.84057,0
7.84628,0
7.85202,0
7.85773,0
7.86345,0
7.86918,0
7.8749,0
7.88062,0
7.88635,170
7.89207,0
7.89778,0
7.90352,0
7.90923,0
7.91495,0
7.92067,0
7.9264,0
7.93212,0
7.93783,0
7.94357,0
7.94928,0
7.955,0
7.96073,0
7.96645,0
7.97217,0
7.9779,0
7.98362,0
7.98933,0
7.99507,0
8.00078,0
8.0065,0
8.01223,0
8.01795,0
8.02367,0
8.0294,0
8.03512,160
8.04083,0
8.04655,0
8.05228,0
8.058,0
8.06372,0
8.06945,0
8.07517,0
8.08088,0
8.08662,0
8.09233,0
8.09805,0
8.10378,0
8.1095,0
8.11522,0
8.12095,0
8.12667,0
8.13238,0
8.13812,0
8.14383,0
8.14955,167
8.15528,0
8.161,0
8.16672,0
8.17243,0
8.17817,0
8.18388,0
8.1896,159
8.19533,0
8.20105,0
8.20677,0
8.2125,0
8.21822,0
8.22393,0
8.22967,0
8.23538,0
8.2411,0
8.24683,0
8.25255,0
8.25827,0
8.264,0
8.26972,0
8.27543,0
8.28117,0
8.28688,0
8.2926,0
8.29832,0
8.30405,0
8.30977,0
8.31548,0
8.32122,0
8.32693,0
8.33265,0
8.33838,0
8.3441,0
8.34982,0
8.35555,0
8.36127,0
8.36698,0
8.37272,0
8.37843,0
8.38415,0
8.38988,0
8.3956,0
8.40132,0
8.40705,0
8.41277,0
8.41848,0
8.4242,0
8.42993,0
8.43565,0
8.44137,0
8.4471,0
8.45282,0
8.45853,0
8.46427,0
8.46998,0
8.4757,0
8.48143,0
8.48715,0
8.49287,0
8.4986,0
8.50432,0
8.51003,0
8.51577,0
8.52148,0
8.5272,0
8.53293,0
8.53865,0
8.54437,0
8.55008,0
8.55582,0
8.56153,0
8.56725,0
8.57298,0
8.5787,0
8.58442,0
8.59015,0
8.59587,0
8.60158,0
8.60732,0
8.61303,0
8.61875,0
8.62448,0
8.6302,0
8.63592,177
8.64165,165
8.64737,0
8.65308,0
8.65882,0
8.66453,0
8.67025,0
8.67597,0
8.6817,0
8.68742,0
8.69313,0
8.69887,0
8.70458,0
8.7103,0
8.71603,0
8.72175,0
8.72747,0
8.7332,0
8.73892,0
8.74463,0
8.75037,0
8.75608,0
8.7618,0
8.76753,0
8.77325,0
8.77897,0
8.7847,0
8.79042,0
8.79613,0
8.80185,0
8.80758,0
8.8133,0
8.81902,0
8.82475,0
8.83047,0
8.83618,0
8.84192,0
8.84763,0
8.85335,0
8.85908,0
8.8648,0
8.87052,0
8.87625,0
8.88197,0
8.88768,0
8.89342,0
8.89913,0
8.90485,0
8.91058,0
8.9163,0
8.92202,0
8.92773,0
8.93347,0
8.93918,0
8.9449,0
8.95063,0
8.95635,0
8.96207,0
8.9678,0
8.97352,0
8.97923,0
8.98497,0
8.99068,0
8.9964,0
9.00213,0
9.00785,0
9.01357,0
9.0193,0
9.02502,0
9.03073,0
9.03647,0
9.04218,0
9.0479,0
9.05362,0
9.05935,0
9.06507,221
9.07078,223
9.07652,459
9.08223,381
9.08795,249
9.09368,207
9.0994,270
9.10512,202
9.11085,0
9.11657,0
9.12228,0
9.12802,0
9.13373,0
9.13945,0
9.14518,0
9.1509,0
9.15662,0
9.16235,0
9.16807,0
9.17378,0
9.1795,0
9.18523,0
9.19095,0
9.19667,0
9.2024,0
9.20812,0
9.21383,0
9.21957,0
9.22528,0
9.231,0
9.23673,0
9.24245,0
9.24817,0
9.2539,0
9.25962,0
9.26533,0
9.27107,0
9.27678,0
9.2825,0
9.28823,0
9.29395,0
9.29967,0
9.30538,0
9.31112,0
9.31683,0
9.32255,0
9.32828,0
9.334,0
9.33972,0
9.34545,0
9.35117,0
9.35688,0
9.36262,0
9.36833,0
9.37405,0
9.37978,0
9.3855,0
9.39122,0
9.39695,0
9.40267,0
9.40838,0
9.41412,0
9.41983,0
9.42555,0
9.43127,0
9.437,0
9.44272,0
9.44843,0
9.45417,0
9.45988,0
9.4656,0
9.47133,0
9.47705,0
9.48277,0
9.4885,0
9.49422,0
9.49993,0
9.50567,0
9.51138,0
9.5171,0
9.52283,0
9.52855,0
9.53427,0
9.54,0
9.54572,0
9.55143,0
9.55715,0
9.56288,0
9.5686,0
9.57432,0
9.58005,0
9.58577,0
9.59148,0
9.59722,0
9.60293,0
9.60865,0
9.61438,0
9.6201,0
9.62582,0
9.63155,0
9.63727,0
9.64298,0
9.64872,0
9.65443,0
9.66015,0
9.66588,0
9.6716,0
9.67732,0
9.68303,0
9.68877,0
9.69448,0
9.7002,0
9.70593,0
9.71165,0
9.71737,0
9.7231,0
9.72882,0
9.73453,0
9.74027,0
9.74598,0
9.7517,0
9.75743,0
9.76315,0
9.76887,0
9.7746,0
9.78032,0
9.78603,0
9.79177,0
9.79748,0
9.8032,0
9.80893,0
9.81465,0
9.82037,0
9.82608,0
9.83182,0
9.83753,0
9.84325,0
9.84898,0
9.8547,0
9.86042,0
9.86615,0
9.87187,0
9.87758,0
9.88332,0
9.88903,0
9.89475,0
9.90048,0
9.9062,0
9.91192,0
9.91765,0
9.92337,0
9.92908,0
9.93482,0
9.94053,0
9.94625,0
9.95197,0
9.9577,0
9.96342,0
9.96913,0
9.97487,0
9.98058,0
9.9863,0
9.99203,0
9.99775,0
10.0035,0
10.0092,0
10.0149,0
10.0206,0
10.0264,0
10.0321,0
10.0378,0
10.0435,0
10.0493,0
10.055,0
10.0607,0
10.0664,0
10.0721,0
10.0779,0
10.0836,0
10.0893,0
10.095,0
10.1008,0
10.1065,0
10.1122,0
10.1179,0
10.1236,0
10.1294,0
10.1351,0
10.1408,0
10.1465,0
10.1523,0
10.158,0
10.1637,0
10.1694,0
10.1751,0
10.1809,0
10.1866,0
10.1923,0
10.198,0
10.2037,0
10.2095,0
10.2152,0
10.2209,0
10.2266,0
10.2324,0
10.2381,0
10.2438,0
10.2495,0
10.2552,0
10.261,0
10.2667,0
10.2724,0
10.2781,0
10.2839,0
10.2896,0
10.2953,0
10.301,0
10.3067,0
10.3125,0
10.3182,0
10.3239,0
10.3296,0
10.3354,0
10.3411,0
10.3468,0
10.3525,0
10.3582,0
10.364,0
10.3697,0
10.3754,0
10.3811,0
10.3869,0
10.3926,0
10.3983,0
10.404,0
10.4097,0
10.4155,0
10.4212,0
10.4269,0
10.4326,0
10.4384,0
10.4441,0
10.4498,0
10.4555,0
10.4612,0
10.467,0
10.4727,0
10.4784,0
10.4841,0
10.4898,0
10.4956,0
10.5013,0
10.507,0
10.5127,0
10.5185,0
10.5242,0
10.5299,0
10.5356,0
10.5413,0
10.5471,0
10.5528,0
10.5585,0
10.5642,0
10.57,0
10.5757,0
10.5814,0
10.5871,0
10.5928,0
10.5986,0
10.6043,0
10.61,0
10.6157,0
10.6215,0
10.6272,0
10.6329,0
10.6386,0
10.6443,0
10.6501,0
10.6558,0
10.6615,0
10.6672,0
10.673,0
10.6787,0
10.6844,0
10.6901,0
10.6958,0
10.7016,0
10.7073,0
10.713,0
10.7187,0
10.7244,0
10.7302,0
10.7359,0
10.7416,0
10.7473,0
10.7531,0
10.7588,0
10.7645,0
10.7702,0
10.7759,0
10.7817,0
10.7874,0
10.7931,0
10.7988,0
10.8046,0
10.8103,0
10.816,0
10.8217,0
10.8274,0
10.8332,0
10.8389,0
10.8446,0
10.8503,0
10.8561,0
10.8618,0
10.8675,0
10.8732,0
10.8789,0
10.8847,0
10.8904,152
10.8961,0
10.9018,0
10.9076,0
10.9133,0
10.919,0
10.9247,0
10.9304,0
10.9362,0
10.9419,0
10.9476,0
10.9533,0
10.959,0
10.9648,0
10.9705,0
10.9762,0
10.9819,0
10.9877,0
10.9934,0
10.9991,0
11.0048,0
11.0105,0
11.0163,0
11.022,0
11.0277,0
11.0334,0
11.0392,0
11.0449,0
11.0506,0
11.0563,0
11.062,0
11.0678,0
11.0735,0
11.0792,0
11.0849,0
11.0907,0
11.0964,0
11.1021,0
11.1078,0
11.1135,163
11.1193,316
11.125,215
11.1307,473
11.1364,246
11.1422,172
11.1479,0
11.1536,0
11.1593,0
11.165,0
11.1708,0
11.1765,0
11.1822,0
11.1879,0
11.1937,0
11.1994,0
11.2051,0
11.2108,0
11.2165,0
11.2223,0
11.228,0
11.2337,0
11.2394,0
11.2451,0
11.2509,0
11.2566,0
11.2623,0
11.268,0
11.2738,0
11.2795,0
11.2852,0
11.2909,0
11.2966,0
11.3024,0
11.3081,0
11.3138,0
11.3195,0
11.3253,0
11.331,0
11.3367,0
11.3424,0
11.3481,0
11.3539,0
11.3596,0
11.3653,0
11.371,0
11.3768,0
11.3825,0
11.3882,0
11.3939,0
11.3996,0
11.4054,0
11.4111,0
11.4168,0
11.4225,0
11.4283,0
11.434,0
11.4397,0
11.4454,0
11.4511,0
11.4569,0
11.4626,0
11.4683,0
11.474,0
11.4797,0
11.4855,0
11.4912,0
11.4969,0
11.5026,0
11.5084,0
11.5141,167
11.5198,245
11.5255,194
11.5312,153
11.537,0
11.5427,0
11.5484,0
11.5541,0
11.5599,0
11.5656,0
11.5713,0
11.577,0
11.5827,0
11.5885,0
11.5942,0
11.5999,0
11.6056,0
11.6114,0
11.6171,0
11.6228,0
11.6285,0
11.6342,0
11.64,0
11.6457,0
11.6514,0
11.6571,0
11.6629,0
11.6686,0
11.6743,0
11.68,0
11.6857,0
11.6915,0
11.6972,0
11.7029,0
11.7086,0
11.7143,0
11.7201,0
11.7258,0
11.7315,0
11.7372,0
11.743,0
11.7487,0
11.7544,0
11.7601,0
11.7658,0
11.7716,0
11.7773,0
11.783,0
11.7887,0
11.7945,0
11.8002,0
11.8059,0
11.8116,0
11.8173,0
11.8231,0
11.8288,0
11.8345,0
11.8402,0
11.846,0
11.8517,0
11.8574,0
11.8631,0
11.8688,0
11.8746,0
11.8803,0
11.886,0
11.8917,0
11.8975,0
11.9032,0
11.9089,0
11.9146,0
11.9203,0
11.9261,0
11.9318,0
11.9375,0
11.9432,0
11.949,0
11.9547,0
11.9604,0
11.9661,0
11.9718,0
11.9776,0
11.9833,0
11.989,0
11.9947,0
12.0004,0
12.0062,0
12.0119,0
12.0176,0
12.0233,0
12.0291,0
12.0348,0
12.0405,0
12.0462,0
12.0519,0
12.0577,0
12.0634,0
12.0691,0
12.0748,0
12.0806,0
12.0863,0
12.092,0
12.0977,0
12.1034,0
12.1092,0
12.1149,0
12.1206,0
12.1263,0
12.1321,0
12.1378,0
12.1435,0
12.1492,0
12.1549,0
12.1607,0
12.1664,0
12.1721,0
12.1778,0
12.1836,0
12.1893,0
12.195,0
12.2007,0
12.2064,0
12.2122,0
12.2179,0
12.2236,0
12.2293,0
12.235,0
12.2408,0
12.2465,0
12.2522,0
12.2579,0
12.2637,0
12.2694,0
12.2751,0
12.2808,0
12.2865,0
12.2923,0
12.298,0
12.3037,0
12.3094,0
12.3152,0
12.3209,0
12.3266,0
12.3323,0
12.338,0
12.3438,0
12.3495,0
12.3552,0
12.3609,0
12.3667,0
12.3724,0
12.3781,0
12.3838,0
12.3895,0
12.3953,0
12.401,0
12.4067,0
12.4124,0
12.4182,0
12.4239,0
12.4296,0
12.4353,0
12.441,0
12.4468,0
12.4525,0
12.4582,0
12.4639,0
12.4696,0
12.4754,0
12.4811,0
12.4868,0
12.4925,0
12.4983,0
12.504,0
12.5097,0
12.5154,0
12.5211,0
12.5269,0
12.5326,0
12.5383,0
12.544,0
12.5498,0
12.5555,0
12.5612,0
12.5669,0
12.5726,0
12.5784,0
12.5841,0
12.5898,0
12.5955,0
12.6013,0
12.607,0
12.6127,0
12.6184,0
12.6241,0
12.6299,0
12.6356,0
12.6413,0
12.647,0
12.6528,0
12.6585,0
12.6642,0
12.6699,0
12.6756,0
12.6814,0
12.6871,0
12.6928,0
12.6985,0
12.7043,0
12.71,0
12.7157,0
12.7214,0
12.7271,0
12.7329,0
12.7386,0
12.7443,0
12.75,0
12.7557,0
12.7615,0
12.7672,0
12.7729,0
12.7786,0
12.7844,0
12.7901,0
12.7958,0
12.8015,0
12.8072,0
12.813,0
12.8187,0
12.8244,0
12.8301,0
12.8359,0
12.8416,0
12.8473,0
12.853,0
12.8587,0
12.8645,0
12.8702,0
12.8759,0
12.8816,0
12.8874,0
12.8931,0
12.8988,0
12.9045,0
12.9102,0
12.916,0
12.9217,0
12.9274,0
12.9331,0
12.9389,171
12.9446,166
12.9503,184
12.956,224
12.9617,0
12.9675,0
12.9732,0
12.9789,0
12.9846,0
12.9903,0
12.9961,0
13.0018,0
13.0075,0
13.0132,0
13.019,0
13.0247,0
13.0304,0
13.0361,0
13.0418,0
13.0476,0
13.0533,0
13.059,0
13.0647,0
13.0705,0
13.0762,0
13.0819,0
13.0876,0
13.0933,0
13.0991,0
13.1048,0
13.1105,0
13.1162,0
13.122,0
13.1277,0
13.1334,0
13.1391,0
13.1448,0
13.1506,0
13.1563,0
13.162,0
13.1677,0
13.1735,0
13.1792,0
13.1849,0
13.1906,164
13.1963,0
13.2021,0
13.2078,0
13.2135,0
13.2192,0
13.2249,0
13.2307,0
13.2364,0
13.2421,0
13.2478,0
13.2536,0
13.2593,0
13.265,0
13.2707,0
13.2764,0
13.2822,0
13.2879,0
13.2936,0
13.2993,0
13.3051,0
13.3108,0
13.3165,0
13.3222,0
13.3279,0
13.3337,0
13.3394,0
13.3451,0
13.3508,0
13.3566,0
13.3623,0
13.368,0
13.3737,0
13.3794,0
13.3852,0
13.3909,0
13.3966,0
13.4023,0
13.4081,0
13.4138,0
13.4195,0
13.4252,0
13.4309,0
13.4367,0
13.4424,0
13.4481,0
13.4538,0
13.4596,0
13.4653,0
13.471,0
13.4767,0
13.4824,0
13.4882,0
13.4939,0
13.4996,0
13.5053,0
13.511,0
13.5168,0
13.5225,0
13.5282,0
13.5339,0
13.5397,0
13.5454,0
13.5511,0
13.5568,0
13.5625,0
13.5683,0
13.574,0
13.5797,0
13.5854,0
13.5912,0
13.5969,0
13.6026,0
13.6083,0
13.614,0
13.6198,0
13.6255,0
13.6312,0
13.6369,0
13.6427,0
13.6484,0
13.6541,0
13.6598,0
13.6655,0
13.6713,0
13.677,0
13.6827,0
13.6884,0
13.6942,0
13.6999,0
13.7056,0
13.7113,0
13.717,0
13.7228,0
13.7285,0
13.7342,0
13.7399,0
13.7456,0
13.7514,0
13.7571,0
13.7628,0
13.7685,0
13.7743,0
13.78,0
13.7857,0
13.7914,0
13.7971,0
13.8029,0
13.8086,0
13.8143,0
13.82,0
13.8258,0
13.8315,0
13.8372,0
13.8429,0
13.8486,0
13.8544,0
13.8601,0
13.8658,0
13.8715,0
13.8773,0
13.883,0
13.8887,0
13.8944,0
13.9001,0
13.9059,0
13.9116,0
13.9173,0
13.923,0
13.9288,0
13.9345,0
13.9402,0
13.9459,0
13.9516,0
13.9574,0
13.9631,0
13.9688,0
13.9745,0
13.9803,0
13.986,0
13.9917,0
13.9974,0
14.0031,0
14.0089,0
14.0146,0
14.0203,0
14.026,0
14.0317,0
14.0375,0
14.0432,0
14.0489,0
14.0546,0
14.0604,0
14.0661,0
14.0718,0
14.0775,0
14.0832,0
14.089,0
14.0947,0
14.1004,0
14.1061,0
14.1119,0
14.1176,0
14.1233,0
14.129,0
14.1347,0
14.1405,0
14.1462,0
14.1519,0
14.1576,0
14.1634,0
14.1691,0
14.1748,0
14.1805,0
14.1862,0
14.192,0
14.1977,0
14.2034,0
14.2091,0
14.2149,0
14.2206,0
14.2263,0
14.232,0
14.2377,0
14.2435,0
14.2492,0
14.2549,0
14.2606,0
14.2663,0
14.2721,0
14.2778,0
14.2835,0
14.2892,0
14.295,0
14.3007,0
14.3064,0
14.3121,0
14.3178,0
14.3236,0
14.3293,0
14.335,0
14.3407,0
14.3465,0
14.3522,0
14.3579,0
14.3636,0
14.3693,0
14.3751,0
14.3808,0
14.3865,0
14.3922,0
14.398,0
14.4037,0
14.4094,0
14.4151,154
14.4208,0
14.4266,0
14.4323,0
14.438,0
14.4437,0
14.4495,0
14.4552,0
14.4609,0
14.4666,0
14.4723,0
14.4781,0
14.4838,0
14.4895,0
14.4952,0
14.5009,161
14.5067,0
14.5124,0
14.5181,0
14.5238,0
14.5296,0
14.5353,0
14.541,0
14.5467,0
14.5524,0
14.5582,0
14.5639,0
14.5696,0
14.5753,0
14.5811,0
14.5868,0
14.5925,0
14.5982,0
14.6039,0
14.6097,0
14.6154,0
14.6211,0
14.6268,0
14.6326,0
14.6383,0
14.644,0
14.6497,0
14.6554,0
14.6612,0
14.6669,0
14.6726,0
14.6783,0
14.6841,0
14.6898,0
14.6955,0
14.7012,0
14.7069,0
14.7127,0
14.7184,0
14.7241,0
14.7298,0
14.7356,0
14.7413,0
14.747,0
14.7527,0
14.7584,0
14.7642,0
14.7699,0
14.7756,0
14.7813,0
14.787,0
14.7928,0
14.7985,0
14.8042,0
14.8099,0
14.8157,0
14.8214,0
14.8271,0
14.8328,0
14.8385,0
14.8443,167
14.85,0
14.8557,0
14.8614,0
14.8672,0
14.8729,0
14.8786,0
14.8843,0
14.89,0
14.8958,0
14.9015,0
14.9072,0
14.9129,0
14.9187,0
14.9244,0
14.9301,0
14.9358,0
14.9415,0
14.9473,0
14.953,0
14.9587,0
14.9644,0
14.9702,0
14.9759,0
14.9816,0
14.9873,0
14.993,0
14.9988,0
15.0045,0
15.0102,0
15.0159,0
15.0216,0
15.0274,0
15.0331,0
15.0388,0
15.0445,0
15.0503,0
15.056,0
15.0617,0
15.0674,0
15.0731,0
15.0789,0
15.0846,0
15.0903,0
15.096,0
15.1018,0
15.1075,0
15.1132,0
15.1189,0
15.1246,0
15.1304,0
15.1361,0
15.1418,0
15.1475,0
15.1533,0
15.159,154
15.1647,0
15.1704,0
15.1761,0
15.1819,0
15.1876,0
15.1933,0
15.199,0
15.2048,0
15.2105,0
15.2162,0
15.2219,0
15.2276,0
15.2334,0
15.2391,0
15.2448,0
15.2505,0
15.2562,0
15.262,0
15.2677,0
15.2734,151
15.2791,0
15.2849,0
15.2906,0
15.2963,0
15.302,0
15.3077,0
15.3135,0
15.3192,0
15.3249,0
15.3306,157
15.3364,0
15.3421,0
15.3478,0
15.3535,0
15.3592,0
15.365,0
15.3707,0
15.3764,0
15.3821,0
15.3879,0
15.3936,150
15.3993,0
15.405,0
15.4107,0
15.4165,0
15.4222,0
15.4279,0
15.4336,0
15.4394,0
15.4451,0
15.4508,0
15.4565,0
15.4622,0
15.468,0
15.4737,0
15.4794,0
15.4851,0
15.4909,0
15.4966,0
15.5023,0
15.508,0
15.5137,0
15.5195,0
15.5252,0
15.5309,186
15.5366,0
15.5423,0
15.5481,0
15.5538,0
15.5595,0
15.5652,0
15.571,0
15.5767,0
15.5824,0
15.5881,0
15.5938,0
15.5996,0
15.6053,0
15.611,0
15.6167,0
15.6225,0
15.6282,0
15.6339,0
15.6396,0
15.6453,0
15.6511,0
15.6568,0
15.6625,0
15.6682,0
15.674,0
15.6797,0
15.6854,0
15.6911,0
15.6968,0
15.7026,161
15.7083,0
15.714,0
15.7197,0
15.7255,0
15.7312,0
15.7369,0
15.7426,0
15.7483,0
15.7541,0
15.7598,0
15.7655,0
15.7712,0
15.7769,0
15.7827,0
15.7884,0
15.7941,0
15.7998,0
15.8056,0
15.8113,156
15.817,196
15.8227,0
15.8284,0
15.8342,0
15.8399,0
15.8456,0
15.8513,0
15.8571,0
15.8628,0
15.8685,0
15.8742,0
15.8799,0
15.8857,0
15.8914,0
15.8971,0
15.9028,168
15.9086,0
15.9143,0
15.92,0
15.9257,0
15.9314,175
15.9372,0
15.9429,0
15.9486,162
15.9543,0
15.9601,0
15.9658,0
15.9715,0
15.9772,0
15.9829,0
15.9887,0
15.9944,0
16.0001,168
16.0058,0
16.0115,0
16.0173,0
16.023,0
16.0287,0
16.0344,156
16.0402,0
16.0459,162
16.0516,0
16.0573,0
16.063,0
16.0688,0
16.0745,0
16.0802,0
16.0859,0
16.0917,0
16.0974,0
16.1031,0
16.1088,0
16.1145,0
16.1203,0
16.126,0
16.1317,165
16.1374,0
16.1431,0
16.1489,0
16.1546,0
16.1603,185
16.166,0
16.1717,208
16.1775,170
16.1832,169
16.1889,158
16.1946,0
16.2004,0
16.2061,152
16.2118,0
16.2175,0
16.2233,0
16.229,0
16.2347,0
16.2404,0
16.2462,0
16.2519,174
16.2576,0
16.2633,174
16.269,0
16.2748,0
16.2805,0
16.2862,0
16.2919,154
16.2976,0
16.3034,157
16.3091,0
16.3148,0
16.3205,0
16.3263,0
16.332,166
16.3377,168
16.3434,0
16.3491,0
16.3549,187
16.3606,0
16.3663,0
16.372,0
16.3777,158
16.3835,0
16.3892,152
16.3949,0
16.4006,0
16.4064,0
16.4121,0
16.4178,157
16.4235,0
16.4293,163
16.435,0
16.4407,0
16.4464,200
16.4521,154
16.4579,162
16.4636,0
16.4693,183
16.475,0
16.4808,155
16.4865,0
16.4922,0
16.4979,0
16.5036,0
16.5094,164
16.5151,0
16.5208,0
16.5265,0
16.5322,0
16.538,0
16.5437,154
16.5494,187
16.5551,165
16.5608,181
16.5666,0
16.5723,171
16.578,0
16.5837,262
16.5895,0
16.5952,0
16.6009,215
16.6066,0
16.6123,182
16.6181,0
16.6238,170
16.6295,233
16.6352,161
16.641,156
16.6467,220
16.6524,0
16.6581,154
16.6639,159
16.6696,175
16.6753,169
16.681,224
16.6867,170
16.6925,0
16.6982,0
16.7039,0
16.7096,153
16.7154,219
16.7211,352
16.7268,0
16.7325,0
16.7382,215
16.744,168
16.7497,0
16.7554,192
16.7611,150
16.7668,169
16.7726,182
16.7783,213
16.784,155
16.7897,169
16.7954,159
16.8012,200
16.8069,244
16.8126,175
16.8183,0
16.8241,279
16.8298,217
16.8355,269
16.8412,0
16.847,222
16.8527,187
16.8584,0
16.8641,0
16.8698,208
16.8756,171
16.8813,0
16.887,193
16.8927,182
16.8985,168
16.9042,168
16.9099,187
16.9156,180
16.9213,0
16.9271,190
16.9328,0
16.9385,176
16.9442,150
16.95,0
16.9557,177
16.9614,170
16.9671,163
16.9728,177
16.9785,0
16.9843,180
16.99,166
16.9957,176
17.0014,164
17.0072,220
17.0129,230
17.0186,236
17.0243,333
17.03,176
17.0358,208
17.0415,179
17.0472,212
17.0529,0
17.0587,228
17.0644,168
17.0701,187
17.0758,199
17.0816,0
17.0873,212
17.093,212
17.0987,250
17.1044,155
17.1102,162
17.1159,241
17.1216,199
17.1273,152
17.1331,172
17.1388,275
17.1445,204
17.1502,255
17.1559,186
17.1617,294
17.1674,261
17.1731,173
17.1788,218
17.1846,202
17.1903,229
17.196,302
17.2017,389
17.2074,220
17.2131,305
17.2189,277
17.2246,169
17.2303,234
17.236,247
17.2418,218
17.2475,253
17.2532,239
17.2589,159
17.2647,150
17.2704,179
17.2761,211
17.2818,249
17.2875,0
17.2933,204
17.299,203
17.3047,310
17.3104,0
17.3162,222
17.3219,432
17.3276,190
17.3333,325
17.339,254
17.3448,301
17.3505,226
17.3562,257
17.3619,418
17.3677,243
17.3734,228
17.3791,200
17.3848,264
17.3905,211
17.3963,225
17.402,178
17.4077,189
17.4134,347
17.4191,0
17.4249,332
17.4306,186
17.4363,313
17.442,179
17.4477,377
17.4535,268
17.4592,272
17.4649,259
17.4706,255
17.4764,383
17.4821,341
17.4878,299
17.4935,252
17.4993,384
17.505,253
17.5107,254
17.5164,334
17.5222,254
17.5279,282
17.5336,314
17.5393,368
17.545,274
17.5508,289
17.5565,167
17.5622,399
17.5679,216
17.5736,333
17.5794,219
17.5851,368
17.5908,272
17.5965,262
17.6023,226
17.608,272
17.6137,280
17.6194,314
17.6251,214
17.6309,198
17.6366,230
17.6423,311
17.648,437
17.6538,318
17.6595,192
17.6652,172
17.6709,412
17.6766,255
17.6824,193
17.6881,393
17.6938,284
17.6995,250
17.7052,479
17.711,367
17.7167,509
17.7224,231
17.7281,300
17.7339,476
17.7396,391
17.7453,470
17.751,290
17.7568,359
17.7625,300
17.7682,223
17.7739,254
17.7796,247
17.7854,487
17.7911,487
17.7968,254
17.8025,343
17.8082,339
17.814,317
17.8197,457
17.8254,426
17.8311,464
17.8369,559
17.8426,533
17.8483,355
17.854,319
17.8597,317
17.8655,574
17.8712,434
17.8769,463
17.8826,323
17.8883,575
17.8941,246
17.8998,345
17.9055,572
17.9112,264
17.917,294
17.9227,358
17.9284,354
17.9341,476
17.9399,298
17.9456,461
17.9513,239
17.957,335
17.9627,391
17.9685,407
17.9742,388
17.9799,336
17.9856,433
17.9914,446
17.9971,539
18.0028,261
18.0085,271
18.0142,667
18.02,500
18.0257,350
18.0314,505
18.0371,355
18.0428,422
18.0486,557
18.0543,591
18.06,324
18.0657,278
18.0715,629
18.0772,565
18.0829,489
18.0886,519
18.0943,521
18.1001,278
18.1058,606
18.1115,485
18.1172,609
18.1229,344
18.1287,566
18.1344,317
18.1401,478
18.1458,472
18.1516,419
18.1573,512
18.163,456
18.1687,367
18.1745,464
18.1802,381
18.1859,848
18.1916,494
18.1973,673
18.2031,397
18.2088,462
18.2145,521
18.2202,297
18.226,616
18.2317,539
18.2374,594
18.2431,514
18.2488,568
18.2546,592
18.2603,773
18.266,640
18.2717,776
18.2775,493
18.2832,582
18.2889,548
18.2946,779
18.3003,621
18.3061,359
18.3118,496
18.3175,512
18.3232,639
18.3289,788
18.3347,426
18.3404,778
18.3461,440
18.3518,558
18.3576,625
18.3633,816
18.369,673
18.3747,697
18.3804,597
18.3862,516
18.3919,674
18.3976,829
18.4033,778
18.4091,545
18.4148,637
18.4205,689
18.4262,659
18.4319,654
18.4377,335
18.4434,747
18.4491,772
18.4548,698
18.4606,653
18.4663,766
18.472,709
18.4777,688
18.4834,604
18.4892,807
18.4949,711
18.5006,809
18.5063,582
18.5121,702
18.5178,659
18.5235,735
18.5292,901
18.5349,701
18.5406,660
18.5464,800
18.5521,820
18.5578,875
18.5635,746
18.5693,686
18.575,661
18.5807,722
18.5864,534
18.5922,797
18.5979,806
18.6036,709
18.6093,735
18.615,948
18.6208,734
18.6265,991
18.6322,754
18.6379,720
18.6437,768
18.6494,644
18.6551,899
18.6608,611
18.6665,819
18.6723,625
18.678,887
18.6837,671
18.6894,710
18.6952,1139
18.7009,804
18.7066,743
18.7123,787
18.718,1074
18.7238,1306
18.7295,2600
18.7352,3479
18.7409,4312
18.7467,3230
18.7524,1889
18.7581,1181
18.7638,701
18.7695,838
18.7753,877
18.781,786
18.7867,762
18.7924,746
18.7981,989
18.8039,737
18.8096,878
18.8153,1001
18.821,809
18.8268,964
18.8325,851
18.8382,723
18.8439,929
18.8496,652
18.8554,1011
18.8611,723
18.8668,901
18.8725,686
18.8783,1090
18.884,1056
18.8897,1113
18.8954,1003
18.9011,807
18.9069,948
18.9126,991
18.9183,933
18.924,909
18.9298,1036
18.9355,1088
18.9412,1086
18.9469,1027
18.9526,963
18.9583,825
18.9641,888
18.9698,1268
18.9755,943
18.9812,837
18.987,1344
18.9927,1417
18.9984,985
19.0041,1136
19.0099,1007
19.0156,1106
19.0213,743
19.027,1052
19.0328,1102
19.0385,1116
19.0442,1191
19.0499,1028
19.0556,1056
19.0614,1178
19.0671,1001
19.0728,1135
19.0785,1215
19.0842,1323
19.09,1251
19.0957,959
19.1014,1017
19.1071,793
19.1129,1224
19.1186,896
19.1243,1117
19.13,889
19.1357,927
19.1415,871
19.1472,1177
19.1529,1321
19.1586,1413
19.1644,1281
19.1701,909
19.1758,1367
19.1815,1092
19.1872,1352
19.193,1151
19.1987,1143
19.2044,1514
19.2101,1120
19.2159,950
19.2216,1238
19.2273,1377
19.233,1554
19.2387,1438
19.2445,1256
19.2502,1140
19.2559,1067
19.2616,1234
19.2674,1344
19.2731,1343
19.2788,1101
19.2845,1380
19.2902,1181
19.296,1464
19.3017,1376
19.3074,1276
19.3131,1425
19.3188,1172
19.3246,1159
19.3303,1018
19.336,981
19.3417,1340
19.3475,1281
19.3532,1493
19.3589,1619
19.3646,1464
19.3703,1412
19.3761,1324
19.3818,1222
19.3875,1285
19.3932,1396
19.3989,2021
19.4047,1318
19.4104,1388
19.4161,1609
19.4218,1701
19.4276,1753
19.4333,1716
19.439,1478
19.4447,1354
19.4505,1241
19.4562,1428
19.4619,2106
19.4676,1415
19.4733,1522
19.4791,1288
19.4848,1693
19.4905,1663
19.4962,1273
19.502,1628
19.5077,1846
19.5134,1583
19.5191,1857
19.5248,1560
19.5306,1464
19.5363,1673
19.542,1344
19.5477,1302
19.5534,1751
19.5592,1838
19.5649,1678
19.5706,1768
19.5763,1618
19.5821,1459
19.5878,1422
19.5935,1445
19.5992,1775
19.6049,1917
19.6107,1595
19.6164,1811
19.6221,1502
19.6278,1582
19.6336,1521
19.6393,1774
19.645,1838
19.6507,1917
19.6564,1794
19.6622,1582
19.6679,1926
19.6736,1740
19.6793,2226
19.6851,1698
19.6908,1964
19.6965,1957
19.7022,1793
19.7079,1686
19.7137,2184
19.7194,1867
19.7251,2033
19.7308,2024
19.7366,2032
19.7423,2124
19.748,2033
19.7537,1648
19.7594,1814
19.7652,2211
19.7709,2069
19.7766,1916
19.7823,1949
19.7881,1899
19.7938,2217
19.7995,1963
19.8052,1827
19.8109,2071
19.8166,2177
19.8224,2251
19.8281,1878
19.8338,2454
19.8395,2269
19.8453,2043
19.851,2080
19.8567,2390
19.8624,2336
19.8682,1521
19.8739,1994
19.8796,2821
19.8853,2011
19.891,2232
19.8968,2300
19.9025,2442
19.9082,2352
19.9139,2555
19.9197,1936
19.9254,2682
19.9311,2464
19.9368,2154
19.9425,2334
19.9483,2259
19.954,2011
19.9597,2269
19.9654,2596
19.9712,2250
19.9769,2710
19.9826,3046
19.9883,2711
19.994,2097
19.9998,2503
20.0055,2252
20.0112,2845
20.0169,2448
20.0227,2544
20.0284,2846
20.0341,2596
20.0398,2705
20.0455,3070
20.0513,3047
20.057,2701
20.0627,2685
20.0684,2744
20.0741,2852
20.0799,2318
20.0856,2824
20.0913,3075
20.097,2785
20.1028,3230
20.1085,2563
20.1142,3174
20.1199,3004
20.1256,3157
20.1314,3086
20.1371,2863
20.1428,2649
20.1485,2722
20.1543,3205
20.16,3174
20.1657,2529
20.1714,3146
20.1771,2751
20.1829,3009
20.1886,3246
20.1943,3180
20.2,3284
20.2058,3019
20.2115,3044
20.2172,3009
20.2229,3366
20.2286,3178
20.2344,3178
20.2401,3529
20.2458,3349
20.2515,3023
20.2573,2624
20.263,3395
20.2687,3240
20.2744,2894
20.2801,2912
20.2859,3696
20.2916,3139
20.2973,2801
20.303,3261
20.3087,3555
20.3145,3573
20.3202,2695
20.3259,3472
20.3316,3329
20.3374,3146
20.3431,3088
20.3488,3572
20.3545,3370
20.3602,4243
20.366,3417
20.3717,3369
20.3774,3630
20.3831,3086
20.3889,3303
20.3946,3534
20.4003,3699
20.406,3891
20.4117,3495
20.4175,3940
20.4232,3537
20.4289,3656
20.4346,3591
20.4404,3602
20.4461,4357
20.4518,4213
20.4575,3709
20.4632,3175
20.469,3390
20.4747,3731
20.4804,3475
20.4861,3655
20.4918,3932
20.4976,3630
20.5033,3632
20.509,3392
20.5147,4072
20.5205,4526
20.5262,4003
20.5319,3979
20.5376,3886
20.5434,3864
20.5491,4416
20.5548,3558
20.5605,3965
20.5662,3857
20.572,4440
20.5777,4296
20.5834,4229
20.5891,4014
20.5948,4085
20.6006,3860
20.6063,4090
20.612,3749
20.6177,4311
20.6235,4428
20.6292,4383
20.6349,4534
20.6406,4079
20.6463,3983
20.6521,4795
20.6578,4515
20.6635,4401
20.6692,4088
20.675,4166
20.6807,4807
20.6864,4050
20.6921,4637
20.6978,4445
20.7036,4705
20.7093,5380
20.715,4434
20.7207,4577
20.7265,4909
20.7322,4933
20.7379,4897
20.7436,4286
20.7493,4817
20.7551,4679
20.7608,5232
20.7665,4921
20.7722,4280
20.778,4425
20.7837,4770
20.7894,4719
20.7951,5070
20.8008,4709
20.8066,4469
20.8123,4680
20.818,5133
20.8237,4517
20.8294,4765
20.8352,4717
20.8409,5530
20.8466,5033
20.8523,5277
20.8581,5597
20.8638,5412
20.8695,5005
20.8752,5308
20.8809,5346
20.8867,5117
20.8924,4720
20.8981,4749
20.9038,4906
20.9095,5184
20.9153,5244
20.921,4968
20.9267,5291
20.9324,5112
20.9382,5191
20.9439,5315
20.9496,5806
20.9553,5840
20.9611,5857
20.9668,5521
20.9725,5186
20.9782,5234
20.9839,5156
20.9897,5639
20.9954,5518
21.0011,5198
21.0068,6079
21.0126,6162
21.0183,6141
21.024,5413
21.0297,5952
21.0354,6439
21.0412,5923
21.0469,5800
21.0526,5907
21.0583,5545
21.0641,6319
21.0698,6057
21.0755,6368
21.0812,6289
21.0869,6079
21.0927,5799
21.0984,6030
21.1041,5510
21.1098,6449
21.1155,6370
21.1213,6280
21.127,5802
21.1327,6287
21.1384,5993
21.1442,6425
21.1499,6259
21.1556,6425
21.1613,6805
21.167,6784
21.1728,6614
21.1785,6303
21.1842,6156
21.1899,6438
21.1957,6750
21.2014,6183
21.2071,6072
21.2128,6345
21.2185,6437
21.2243,6332
21.23,6722
21.2357,6652
21.2414,6375
21.2472,6670
21.2529,7091
21.2586,7070
21.2643,6999
21.27,7151
21.2758,7054
21.2815,6762
21.2872,7420
21.2929,6864
21.2987,7005
21.3044,7415
21.3101,7193
21.3158,7349
21.3215,7464
21.3272,7121
21.333,7144
21.3387,7118
21.3444,8064
21.3501,7130
21.3559,7679
21.3616,6832
21.3673,7960
21.373,7153
21.3788,7990
21.3845,7086
21.3902,7420
21.3959,7540
21.4016,7693
21.4074,7139
21.4131,7533
21.4188,7475
21.4245,7429
21.4303,7355
21.436,7501
21.4417,7903
21.4474,7835
21.4531,7653
21.4589,7822
21.4646,8060
21.4703,8242
21.476,7392
21.4818,7722
21.4875,8329
21.4932,7571
21.4989,8156
21.5046,8276
21.5104,8430
21.5161,8029
21.5218,8138
21.5275,7671
21.5333,7592
21.539,8366
21.5447,8407
21.5504,7880
21.5561,8228
21.5619,8267
21.5676,9172
21.5733,8490
21.579,8865
21.5847,8939
21.5905,8474
21.5962,8986
21.6019,7872
21.6076,8648
21.6134,8918
21.6191,8936
21.6248,8128
21.6305,8366
21.6362,8631
21.642,8521
21.6477,8105
21.6534,9148
21.6591,9141
21.6649,9317
21.6706,9204
21.6763,8843
21.682,8853
21.6877,8986
21.6935,8687
21.6992,8994
21.7049,9049
21.7106,9708
21.7164,8947
21.7221,8891
21.7278,9049
21.7335,8991
21.7392,9240
21.7449,9821
21.7507,9355
21.7564,8972
21.7621,10332
21.7679,10004
21.7736,9599
21.7793,9711
21.785,9801
21.7907,9151
21.7965,10000
21.8022,9518
21.8079,10359
21.8136,10384
21.8194,9420
21.8251,10094
21.8308,9416
21.8365,9917
21.8422,10485
21.848,9743
21.8537,10027
21.8594,10532
21.8651,10373
21.8708,10323
21.8766,10376
21.8823,11112
21.888,10350
21.8937,10351
21.8995,10694
21.9052,10619
21.9109,10817
21.9166,10691
21.9223,11055
21.9281,10374
21.9338,10687
21.9395,10544
21.9452,10486
21.951,10860
21.9567,10403
21.9624,10758
21.9681,10686
21.9738,11128
21.9796,10490
21.9853,11032
21.991,11150
21.9967,11133
22.0025,11307
22.0082,12127
22.0139,11151
22.0196,11382
22.0253,12282
22.0311,15734
22.0368,18560
22.0425,19058
22.0482,19422
22.054,15799
22.0597,13967
22.0654,12918
22.0711,12411
22.0768,12577
22.0826,12147
22.0883,12887
22.094,12134
22.0997,11675
22.1054,12182
22.1112,12203
22.1169,12636
22.1226,12647
22.1283,12195
22.1341,12821
22.1398,12650
22.1455,13045
22.1512,12445
22.1569,13357
22.1627,12223
22.1684,12037
22.1741,12113
22.1798,12394
22.1856,12763
22.1913,12338
22.197,13034
22.2027,13546
22.2084,13306
22.2142,12722
22.2199,13382
22.2256,13972
22.2313,12992
22.2371,12704
22.2428,12650
22.2485,13509
22.2542,13616
22.2599,14737
22.2657,12455
22.2714,13601
22.2771,12587
22.2828,13601
22.2886,13022
22.2943,12945
22.3,13652
22.3057,14316
22.3114,13903
22.3172,13997
22.3229,14069
22.3286,12874
22.3343,14626
22.34,13806
22.3458,14024
22.3515,14648
22.3572,13902
22.3629,13452
22.3687,15150
22.3744,14201
22.3801,14218
22.3858,14234
22.3915,13970
22.3973,15044
22.403,14477
22.4087,14535
22.4144,14897
22.4202,15009
22.4259,15145
22.4316,13980
22.4373,14270
22.443,14782
22.4488,14604
22.4545,14449
22.4602,15198
22.4659,14748
22.4717,14465
22.4774,15425
22.4831,15132
22.4888,15040
22.4945,14427
22.5003,15257
22.506,14787
22.5117,14917
22.5174,15745
22.5232,14905
22.5289,15745
22.5346,15333
22.5403,16509
22.546,16587
22.5518,16387
22.5575,15459
22.5632,14777
22.5689,15533
22.5747,16199
22.5804,15859
22.5861,16366
22.5918,15290
22.5975,16382
22.6033,15113
22.609,15422
22.6147,15632
22.6204,16522
22.6261,16917
22.6319,16413
22.6376,16025
22.6433,16204
22.649,16360
22.6548,15939
22.6605,16094
22.6662,16156
22.6719,16938
22.6776,16529
22.6834,16514
22.6891,16912
22.6948,16888
22.7005,17414
22.7063,16148
22.712,17166
22.7177,16385
22.7234,16676
22.7291,16787
22.7349,16971
22.7406,17098
22.7463,17276
22.752,17140
22.7578,17818
22.7635,18468
22.7692,18300
22.7749,17850
22.7806,17377
22.7864,16835
22.7921,17541
22.7978,16745
22.8035,18646
22.8093,17691
22.815,17842
22.8207,17120
22.8264,17227
22.8321,17470
22.8379,17541
22.8436,18495
22.8493,17416
22.855,19350
22.8607,18253
22.8665,18165
22.8722,17855
22.8779,19018
22.8836,18799
22.8894,18322
22.8951,19215
22.9008,17376
22.9065,19091
22.9122,19401
22.918,18875
22.9237,18891
22.9294,18871
22.9351,19715
22.9409,19258
22.9466,20414
22.9523,18996
22.958,18925
22.9637,18468
22.9695,18601
22.9752,19030
22.9809,18107
22.9866,19275
22.9924,19085
22.9981,18072
23.0038,18721
23.0095,19960
23.0152,19181
23.021,19866
23.0267,20289
23.0324,20615
23.0381,19732
23.0439,20019
23.0496,18551
23.0553,20259
23.061,19226
23.0667,19099
23.0725,19057
23.0782,20089
23.0839,20226
23.0896,19068
23.0953,20700
23.1011,19121
23.1068,19793
23.1125,19943
23.1182,20821
23.124,20176
23.1297,19435
23.1354,19687
23.1411,19868
23.1468,20487
23.1526,19240
23.1583,20003
23.164,20967
23.1697,19879
23.1755,20881
23.1812,20116
23.1869,20488
23.1926,20321
23.1983,21474
23.2041,21303
23.2098,21179
23.2155,20512
23.2212,20628
23.227,21719
23.2327,20952
23.2384,20477
23.2441,21037
23.2498,20429
23.2555,20761
23.2613,21140
23.267,20606
23.2727,21496
23.2784,21598
23.2842,21979
23.2899,22538
23.2956,21153
23.3013,21450
23.3071,20598
23.3128,21301
23.3185,21786
23.3242,21652
23.33,20802
23.3357,21442
23.3414,21557
23.3471,21769
23.3528,22045
23.3586,21847
23.3643,21729
23.37,21830
23.3757,22473
23.3814,21292
23.3872,21546
23.3929,22221
23.3986,22429
23.4043,22451
23.4101,23107
23.4158,22594
23.4215,22520
23.4272,22865
23.4329,21866
23.4387,22561
23.4444,24048
23.4501,22469
23.4558,22013
23.4616,22851
23.4673,23373
23.473,21498
23.4787,22935
23.4844,22280
23.4902,22169
23.4959,22578
23.5016,23691
23.5073,23424
23.5131,21978
23.5188,23750
23.5245,23281
23.5302,22830
23.5359,23595
23.5417,22391
23.5474,22942
23.5531,23725
23.5588,23382
23.5646,22297
23.5703,23673
23.576,22042
23.5817,22241
23.5874,23652
23.5932,23234
23.5989,23594
23.6046,24722
23.6103,23257
23.616,22410
23.6218,24320
23.6275,24091
23.6332,23099
23.6389,22302
23.6447,23914
23.6504,24233
23.6561,23834
23.6618,23774
23.6675,23458
23.6733,23287
23.679,23472
23.6847,24129
23.6904,24516
23.6961,24000
23.7019,23342
23.7076,23677
23.7133,23558
23.719,23299
23.7248,23273
23.7305,23639
23.7362,23721
23.7419,22584
23.7477,23691
23.7534,23794
23.7591,23819
23.7648,22760
23.7705,23936
23.7763,24471
23.782,23663
23.7877,23196
23.7934,23416
23.7992,24071
23.8049,23939
23.8106,24646
23.8163,23750
23.822,23422
23.8278,23754
23.8335,24169
23.8392,22652
23.8449,24618
23.8506,25402
23.8564,23199
23.8621,23963
23.8678,23322
23.8735,23744
23.8793,24602
23.885,23186
23.8907,24110
23.8964,23059
23.9021,22695
23.9079,23078
23.9136,24400
23.9193,24204
23.925,23681
23.9308,25151
23.9365,24275
23.9422,23522
23.9479,24539
23.9536,22999
23.9594,23386
23.9651,24341
23.9708,23245
23.9765,23695
23.9823,23231
23.988,24495
23.9937,24128
23.9994,23704
24.0051,24775
24.0109,24200
24.0166,23995
24.0223,24368
24.028,24096
24.0338,24059
24.0395,24612
24.0452,24318
24.0509,24216
24.0566,25391
24.0624,25121
24.0681,24943
24.0738,24004
24.0795,23558
24.0853,23906
24.091,24151
24.0967,23635
24.1024,23629
24.1081,23952
24.1139,23885
24.1196,23932
24.1253,23825
24.131,24566
24.1367,24026
24.1425,25293
24.1482,24466
24.1539,24635
24.1596,23456
24.1654,24270
24.1711,25217
24.1768,24096
24.1825,23648
24.1882,24172
24.194,23795
24.1997,24107
24.2054,24545
24.2111,23693
24.2169,23846
24.2226,24894
24.2283,24286
24.234,23684
24.2397,23878
24.2455,22129
24.2512,23696
24.2569,24261
24.2626,23119
24.2684,22890
24.2741,24225
24.2798,24681
24.2855,24027
24.2912,23861
24.297,23053
24.3027,24319
24.3084,23688
24.3141,24375
24.3199,24583
24.3256,23885
24.3313,24460
24.337,23948
24.3427,23466
24.3485,24363
24.3542,24459
24.3599,23900
24.3656,23984
24.3713,24377
24.3771,25005
24.3828,23346
24.3885,24046
24.3942,24123
24.4,23380
24.4057,24161
24.4114,24031
24.4171,24167
24.4228,24616
24.4286,24087
24.4343,25200
24.44,24627
24.4457,24581
24.4515,23653
24.4572,24324
24.4629,24531
24.4686,25120
24.4743,23547
24.4801,24681
24.4858,24481
24.4915,22550
24.4972,22941
24.503,23484
24.5087,23898
24.5144,24070
24.5201,24002
24.5258,24817
24.5316,24444
24.5373,23780
24.543,24052
24.5487,23317
24.5545,24182
24.5602,24938
24.5659,24697
24.5716,24344
24.5773,24445
24.5831,24330
24.5888,23735
24.5945,24838
24.6002,24297
24.606,24778
24.6117,24118
24.6174,24439
24.6231,24663
24.6288,22751
24.6346,23927
24.6403,23886
24.646,23977
24.6517,25477
24.6574,24907
24.6632,24447
24.6689,24818
24.6746,25375
24.6803,23504
24.6861,25015
24.6918,23560
24.6975,24701
24.7032,24149
24.7089,23881
24.7147,24086
24.7204,24058
24.7261,24260
24.7318,24293
24.7376,24465
24.7433,23994
24.749,24653
24.7547,23890
24.7604,24458
24.7662,23396
24.7719,25468
24.7776,24019
24.7833,24550
24.7891,24098
24.7948,24425
24.8005,24705
24.8062,24371
24.8119,24030
24.8177,23681
24.8234,23702
24.8291,24085
24.8348,25121
24.8406,24720
24.8463,23134
24.852,24671
24.8577,23606
24.8634,24532
24.8692,24892
24.8749,23996
24.8806,24063
24.8863,25451
24.892,22647
24.8978,24745
24.9035,24280
24.9092,24662
24.9149,25402
24.9207,24067
24.9264,24633
24.9321,23421
24.9378,24852
24.9435,23935
24.9493,23630
24.955,23116
24.9607,24428
24.9664,25575
24.9722,26010
24.9779,25145
24.9836,24327
24.9893,23711
24.995,24058
