C:\MSDCHEM\1\DATA\JAMES C\20180125 LACTONE WITH BME AND HYDROXYLAMINE\E 20min.d 25 Jan 18   5:00 pm
Start of data points
3.09258,13752
3.0983,13580
3.10402,14866
3.10975,14645
3.11547,12921
3.12118,13981
3.12692,13112
3.13263,12978
3.13835,14142
3.14408,13183
3.1498,13593
3.15552,13507
3.16125,12732
3.16697,14119
3.17268,15532
3.17842,13872
3.18413,13113
3.18985,13378
3.19558,13527
3.2013,13670
3.20702,12909
3.21275,13612
3.21847,13292
3.22418,13961
3.2299,14319
3.23563,14382
3.24135,14396
3.24707,13759
3.2528,13880
3.25852,14128
3.26423,14227
3.26997,12712
3.27568,12586
3.2814,12688
3.28713,12387
3.29285,12459
3.29857,12071
3.3043,11336
3.31002,11265
3.31573,10456
3.32147,11847
3.32718,11291
3.3329,10057
3.33863,10984
3.34435,11242
3.35007,9861
3.35578,10608
3.36152,9561
3.36723,9999
3.37295,10959
3.37868,9577
3.3844,9795
3.39012,9800
3.39585,8752
3.40157,8261
3.40728,9459
3.41302,8117
3.41873,9291
3.42445,8985
3.43018,8392
3.4359,8599
3.44162,10230
3.44735,8827
3.45307,9409
3.45878,8340
3.46452,7678
3.47023,9373
3.47595,8346
3.48167,7190
3.4874,7508
3.49312,7511
3.49883,7052
3.50457,7905
3.51028,8770
3.516,8344
3.52173,8159
3.52745,6950
3.53317,7863
3.5389,7946
3.54462,7125
3.55033,8611
3.55607,6663
3.56178,7888
3.5675,7377
3.57323,6922
3.57895,7466
3.58467,6889
3.5904,6946
3.59612,6520
3.60183,7671
3.60755,7623
3.61328,7506
3.619,7166
3.62472,7168
3.63045,6635
3.63617,6820
3.64188,6610
3.64762,6568
3.65333,6069
3.65905,6079
3.66478,6788
3.6705,7883
3.67622,5828
3.68195,6689
3.68767,6247
3.69338,6791
3.69912,6096
3.70483,6418
3.71055,6554
3.71628,5610
3.722,5549
3.72772,6311
3.73343,6526
3.73917,5480
3.74488,6881
3.7506,6699
3.75633,7267
3.76205,6139
3.76777,6831
3.7735,5587
3.77922,7007
3.78493,6583
3.79067,5831
3.79638,6014
3.8021,5339
3.80783,6127
3.81355,6332
3.81927,5911
3.825,5663
3.83072,5965
3.83643,6264
3.84217,5770
3.84788,5653
3.8536,5896
3.85932,5760
3.86505,5565
3.87077,5513
3.87648,4973
3.88222,5792
3.88793,4984
3.89365,5612
3.89938,4903
3.9051,6036
3.91082,5392
3.91655,6293
3.92227,5144
3.92798,5286
3.93372,5138
3.93943,6023
3.94515,5732
3.95088,5495
3.9566,5068
3.96232,5336
3.96805,5761
3.97377,5402
3.97948,5205
3.98522,4838
3.99093,5197
3.99665,4620
4.00237,4771
4.0081,4017
4.01382,4788
4.01953,4855
4.02527,4155
4.03098,4553
4.0367,4408
4.04243,4958
4.04815,5532
4.05387,4455
4.0596,4754
4.06532,5287
4.07103,4388
4.07677,5392
4.08248,4851
4.0882,4553
4.09393,4481
4.09965,5095
4.10537,4970
4.1111,3924
4.11682,4858
4.12253,4898
4.12825,4387
4.13398,4999
4.1397,4818
4.14542,5062
4.15115,4781
4.15687,4964
4.16258,4883
4.16832,4445
4.17403,4032
4.17975,4205
4.18548,4415
4.1912,4943
4.19692,3846
4.20265,4330
4.20837,4954
4.21408,4267
4.21982,4861
4.22553,5404
4.23125,4305
4.23698,3731
4.2427,4970
4.24842,4330
4.25413,4017
4.25987,4099
4.26558,3991
4.2713,3910
4.27703,4286
4.28275,3323
4.28847,3836
4.2942,3992
4.29992,4483
4.30563,4701
4.31137,4675
4.31708,3880
4.3228,4553
4.32853,4320
4.33425,5309
4.33997,4408
4.3457,4511
4.35142,4966
4.35713,4554
4.36287,5348
4.36858,5632
4.3743,5216
4.38002,5224
4.38575,5826
4.39147,5795
4.39718,5538
4.40292,5698
4.40863,5874
4.41435,5110
4.42008,5586
4.4258,5214
4.43152,4151
4.43725,5449
4.44297,5733
4.44868,5668
4.45442,5479
4.46013,4443
4.46585,4476
4.47158,5114
4.4773,5631
4.48302,4997
4.48875,4822
4.49447,4672
4.50018,4329
4.5059,4395
4.51163,5015
4.51735,4861
4.52307,5541
4.5288,5112
4.53452,4139
4.54023,4157
4.54597,4902
4.55168,3680
4.5574,3922
4.56313,4447
4.56885,4223
4.57457,4524
4.5803,4065
4.58602,4300
4.59173,4468
4.59747,3976
4.60318,3568
4.6089,3545
4.61463,4504
4.62035,4405
4.62607,4386
4.63178,3439
4.63752,3161
4.64323,4220
4.64895,3521
4.65468,3201
4.6604,3632
4.66612,3679
4.67185,3760
4.67757,3739
4.68328,3371
4.68902,3580
4.69473,2926
4.70045,3643
4.70618,2999
4.7119,4869
4.71762,3712
4.72335,3815
4.72907,3378
4.73478,3685
4.74052,3482
4.74623,3238
4.75195,4278
4.75767,3854
4.7634,3065
4.76912,3785
4.77483,3137
4.78057,3148
4.78628,4389
4.792,2994
4.79773,2734
4.80345,2686
4.80917,3031
4.8149,3659
4.82062,2982
4.82633,3225
4.83207,3838
4.83778,3068
4.8435,3539
4.84923,3742
4.85495,2962
4.86067,3586
4.8664,2891
4.87212,3201
4.87783,2508
4.88355,2570
4.88928,3340
4.895,3580
4.90072,3942
4.90645,2371
4.91217,2630
4.91788,3513
4.92362,2667
4.92933,2960
4.93505,3470
4.94078,3635
4.9465,2826
4.95222,3417
4.95795,3433
4.96367,3575
4.96938,3271
4.97512,2981
4.98083,3332
4.98655,3511
4.99228,2534
4.998,2599
5.00372,2557
5.00943,2945
5.01517,2903
5.02088,2987
5.0266,2259
5.03233,3178
5.03805,2715
5.04377,2893
5.0495,2956
5.05522,2960
5.06093,3315
5.06667,2315
5.07238,2142
5.0781,3218
5.08383,2440
5.08955,3026
5.09527,2622
5.101,3074
5.10672,2732
5.11243,2723
5.11817,2540
5.12388,3055
5.1296,2387
5.13532,2878
5.14105,2767
5.14677,2513
5.15248,2955
5.15822,3442
5.16393,3034
5.16965,3609
5.17538,2438
5.1811,2800
5.18682,2919
5.19255,2712
5.19827,2442
5.20398,2822
5.20972,2733
5.21543,2738
5.22115,3028
5.22688,2799
5.2326,3828
5.23832,2997
5.24405,2426
5.24977,2977
5.25548,2962
5.2612,2703
5.26693,2715
5.27265,2737
5.27837,3380
5.2841,2333
5.28982,2883
5.29553,2815
5.30127,2307
5.30698,2662
5.3127,2350
5.31843,2197
5.32415,2509
5.32987,2442
5.3356,2351
5.34132,2204
5.34703,2692
5.35277,2200
5.35848,2366
5.3642,2471
5.36993,2766
5.37565,2237
5.38137,2695
5.38708,2429
5.39282,2868
5.39853,3096
5.40425,2355
5.40998,2702
5.4157,2623
5.42142,3267
5.42715,2919
5.43287,3251
5.43858,2981
5.44432,3228
5.45003,3388
5.45575,2441
5.46148,3270
5.4672,2382
5.47292,2271
5.47865,2308
5.48437,2608
5.49008,3369
5.49582,2767
5.50153,3301
5.50725,2557
5.51297,3021
5.5187,3154
5.52442,2873
5.53013,2471
5.53587,3011
5.54158,2808
5.5473,2462
5.55303,2865
5.55875,2403
5.56447,2569
5.5702,2615
5.57592,2329
5.58163,2406
5.58737,1810
5.59308,2171
5.5988,2219
5.60453,2394
5.61025,2233
5.61597,2327
5.6217,2308
5.62742,2085
5.63313,2642
5.63885,2542
5.64458,2225
5.6503,2448
5.65602,3346
5.66175,2973
5.66747,2711
5.67318,3185
5.67892,2272
5.68463,2931
5.69035,2589
5.69608,2278
5.7018,2260
5.70752,3003
5.71325,1762
5.71897,2364
5.72468,2287
5.73042,2229
5.73613,2277
5.74185,2141
5.74758,2122
5.7533,2894
5.75902,2211
5.76473,2076
5.77047,2093
5.77618,2852
5.7819,2134
5.78763,2723
5.79335,2471
5.79907,2529
5.8048,2372
5.81052,1966
5.81623,2002
5.82197,2389
5.82768,2608
5.8334,2855
5.83913,2823
5.84485,1694
5.85057,2161
5.8563,2703
5.86202,2133
5.86773,2062
5.87347,2505
5.87918,2144
5.8849,2169
5.89062,2651
5.89635,2454
5.90207,1707
5.90778,2813
5.91352,2498
5.91923,1982
5.92495,2705
5.93068,1888
5.9364,2330
5.94212,3219
5.94785,3169
5.95357,1581
5.95928,2464
5.96502,2107
5.97073,1577
5.97645,2689
5.98218,1948
5.9879,2214
5.99362,1901
5.99935,1789
6.00507,2300
6.01078,2397
6.0165,2173
6.02223,2032
6.02795,1340
6.03367,2393
6.0394,1998
6.04512,1941
6.05083,3006
6.05657,2209
6.06228,3544
6.068,3279
6.07373,2557
6.07945,3618
6.08517,3781
6.0909,4005
6.09662,3237
6.10233,3113
6.10807,3159
6.11378,3074
6.1195,3416
6.12523,3371
6.13095,3186
6.13667,2390
6.14238,2136
6.14812,2920
6.15383,2368
6.15955,2566
6.16528,3301
6.171,1991
6.17672,2540
6.18245,2090
6.18817,3056
6.19388,2511
6.19962,2505
6.20533,2557
6.21105,2566
6.21678,1868
6.2225,1759
6.22822,2038
6.23395,2716
6.23967,2700
6.24538,1757
6.25112,2844
6.25683,1921
6.26255,2390
6.26827,2893
6.274,2808
6.27972,1990
6.28543,1744
6.29117,3071
6.29688,2971
6.3026,1676
6.30833,3010
6.31405,3214
6.31977,2245
6.3255,2266
6.33122,2446
6.33693,3025
6.34267,2755
6.34838,2359
6.3541,2567
6.35983,2925
6.36555,2046
6.37127,2218
6.377,2695
6.38272,2952
6.38843,2598
6.39415,3050
6.39988,2761
6.4056,2816
6.41132,2288
6.41705,2716
6.42277,2925
6.42848,2428
6.43422,2551
6.43993,2630
6.44565,2809
6.45138,2516
6.4571,2993
6.46282,2885
6.46855,3142
6.47427,2887
6.47998,2804
6.48572,3016
6.49143,3111
6.49715,3557
6.50288,2573
6.5086,3106
6.51432,3313
6.52003,3198
6.52577,2453
6.53148,3086
6.5372,3780
6.54293,3309
6.54865,2832
6.55437,2800
6.5601,3355
6.56582,3196
6.57153,2772
6.57727,2812
6.58298,2476
6.5887,2913
6.59443,2770
6.60015,2847
6.60587,3391
6.6116,2477
6.61732,2703
6.62303,3963
6.62877,3401
6.63448,2807
6.6402,3401
6.64592,3549
6.65165,3976
6.65737,3232
6.66308,3941
6.66882,3697
6.67453,4034
6.68025,3825
6.68598,4172
6.6917,3681
6.69742,3363
6.70315,4960
6.70887,3838
6.71458,4596
6.72032,4226
6.72603,4211
6.73175,4378
6.73748,3995
6.7432,4318
6.74892,4414
6.75465,4046
6.76037,3760
6.76608,3642
6.7718,4362
6.77753,3920
6.78325,4659
6.78897,4209
6.7947,3499
6.80042,3838
6.80613,3376
6.81187,3941
6.81758,3440
6.8233,4121
6.82903,3947
6.83475,3189
6.84047,3113
6.8462,3907
6.85192,3506
6.85763,3589
6.86337,3561
6.86908,2807
6.8748,3914
6.88053,3070
6.88625,3184
6.89197,3705
6.89768,4094
6.90342,2759
6.90913,3270
6.91485,2663
6.92058,3480
6.9263,3394
6.93202,3141
6.93775,3833
6.94347,2980
6.94918,2873
6.95492,3437
6.96063,2794
6.96635,3430
6.97208,3181
6.9778,3896
6.98352,2855
6.98925,3080
6.99497,3588
7.00068,3579
7.00642,3707
7.01213,3323
7.01785,3604
7.02357,2285
7.0293,3087
7.03502,4033
7.04073,3813
7.04647,3179
7.05218,3457
7.0579,2543
7.06363,4113
7.06935,3825
7.07507,3162
7.0808,3897
7.08652,3206
7.09223,3698
7.09797,3613
7.10368,3418
7.1094,3601
7.11513,4508
7.12085,5051
7.12657,7352
7.1323,6548
7.13802,6676
7.14373,5679
7.14945,5953
7.15518,5614
7.1609,5888
7.16662,5435
7.17235,4373
7.17807,5250
7.18378,3905
7.18952,4560
7.19523,4532
7.20095,3717
7.20668,4803
7.2124,4479
7.21812,3030
7.22385,4176
7.22957,3403
7.23528,3852
7.24102,3512
7.24673,3626
7.25245,3171
7.25818,3558
7.2639,3890
7.26962,4238
7.27533,3682
7.28107,2979
7.28678,3227
7.2925,4126
7.29823,4733
7.30395,5519
7.30967,5430
7.3154,5530
7.32112,5627
7.32683,5154
7.33257,4963
7.33828,4376
7.344,4462
7.34973,4757
7.35545,3715
7.36117,3505
7.3669,3825
7.37262,3358
7.37833,3741
7.38407,4190
7.38978,4018
7.3955,2890
7.40122,3445
7.40695,3953
7.41267,2540
7.41838,3471
7.42412,3441
7.42983,3858
7.43555,3332
7.44128,2967
7.447,3560
7.45272,3540
7.45845,3510
7.46417,4041
7.46988,3460
7.47562,2112
7.48133,4237
7.48705,3138
7.49278,4020
7.4985,2828
7.50422,3115
7.50995,3462
7.51567,3437
7.52138,2568
7.52712,2653
7.53283,2622
7.53855,3721
7.54427,3199
7.55,3365
7.55572,4211
7.56143,3441
7.56717,4140
7.57288,3072
7.5786,3142
7.58433,3593
7.59005,3660
7.59577,2866
7.6015,2929
7.60722,3782
7.61293,3213
7.61867,3471
7.62438,3249
7.6301,3878
7.63583,3585
7.64155,3383
7.64727,3167
7.653,4006
7.65872,2744
7.66443,3617
7.67015,2663
7.67588,4141
7.6816,4146
7.68732,3399
7.69305,3255
7.69877,4121
7.70448,4111
7.71022,3987
7.71593,3284
7.72165,4464
7.72738,4503
7.7331,4353
7.73882,5228
7.74455,3385
7.75027,3898
7.75598,5504
7.76172,4017
7.76743,3586
7.77315,4220
7.77888,3554
7.7846,4157
7.79032,3163
7.79603,3349
7.80177,3867
7.80748,4005
7.8132,3761
7.81893,4231
7.82465,3831
7.83037,4050
7.8361,4325
7.84182,3430
7.84753,3049
7.85327,2835
7.85898,2937
7.8647,3656
7.87043,2927
7.87615,4014
7.88187,2964
7.8876,3077
7.89332,3313
7.89903,3885
7.90477,3217
7.91048,3276
7.9162,3598
7.92192,3228
7.92765,3587
7.93337,3077
7.93908,3800
7.94482,3475
7.95053,4429
7.95625,3804
7.96198,3148
7.9677,3094
7.97342,3502
7.97915,3667
7.98487,3148
7.99058,3833
7.99632,3275
8.00203,3925
8.00775,3412
8.01348,3212
8.0192,3587
8.02492,2801
8.03065,3160
8.03637,4171
8.04208,3557
8.0478,3870
8.05353,3871
8.05925,3374
8.06497,3809
8.0707,3318
8.07642,4071
8.08213,3350
8.08787,3480
8.09358,3616
8.0993,3732
8.10503,2666
8.11075,4062
8.11647,3185
8.1222,3985
8.12792,3612
8.13363,3864
8.13937,4119
8.14508,3509
8.1508,4142
8.15653,3527
8.16225,3681
8.16797,3208
8.17368,3387
8.17942,3414
8.18513,3651
8.19085,2907
8.19658,3256
8.2023,3978
8.20802,3394
8.21375,3350
8.21947,3323
8.22518,3258
8.23092,3428
8.23663,2562
8.24235,3509
8.24808,4726
8.2538,3355
8.25952,3215
8.26525,3270
8.27097,2525
8.27668,3467
8.28242,3012
8.28813,3055
8.29385,3294
8.29957,4243
8.3053,3411
8.31102,2777
8.31673,3911
8.32247,3788
8.32818,3229
8.3339,3608
8.33963,3282
8.34535,3593
8.35107,4153
8.3568,3930
8.36252,3809
8.36823,3289
8.37397,3821
8.37968,3978
8.3854,3337
8.39113,2828
8.39685,3826
8.40257,3746
8.4083,3171
8.41402,3550
8.41973,3183
8.42545,3852
8.43118,3793
8.4369,2146
8.44262,2276
8.44835,3223
8.45407,3237
8.45978,4016
8.46552,3300
8.47123,3523
8.47695,3627
8.48268,4294
8.4884,3418
8.49412,3121
8.49985,3522
8.50557,2873
8.51128,3256
8.51702,3115
8.52273,3980
8.52845,3661
8.53418,2944
8.5399,4039
8.54562,3474
8.55133,3576
8.55707,3724
8.56278,3418
8.5685,3155
8.57423,2952
8.57995,4089
8.58567,2965
8.5914,2984
8.59712,4136
8.60283,3809
8.60857,3095
8.61428,4041
8.62,3325
8.62573,3188
8.63145,3440
8.63717,4151
8.6429,3121
8.64862,4410
8.65433,3457
8.66007,3752
8.66578,3194
8.6715,4063
8.67722,3156
8.68295,3345
8.68867,3802
8.69438,3530
8.70012,3186
8.70583,2993
8.71155,2709
8.71728,3143
8.723,3919
8.72872,3772
8.73445,3921
8.74017,3923
8.74588,4137
8.75162,3911
8.75733,3741
8.76305,3086
8.76878,3408
8.7745,4273
8.78022,4505
8.78595,3734
8.79167,3813
8.79738,3743
8.8031,3535
8.80883,4078
8.81455,4167
8.82027,3643
8.826,3469
8.83172,3911
8.83743,3094
8.84317,3535
8.84888,3287
8.8546,3648
8.86033,3409
8.86605,4443
8.87177,3904
8.8775,3978
8.88322,3765
8.88893,4002
8.89467,3834
8.90038,3409
8.9061,4070
8.91183,3974
8.91755,3963
8.92327,3406
8.92898,3341
8.93472,3675
8.94043,4284
8.94615,3800
8.95188,3457
8.9576,4370
8.96332,3422
8.96905,3714
8.97477,3531
8.98048,4608
8.98622,4835
8.99193,5134
8.99765,7709
9.00338,6632
9.0091,5986
9.01482,4584
9.02055,4407
9.02627,4908
9.03198,3653
9.03772,3595
9.04343,3997
9.04915,4123
9.05487,4261
9.0606,3964
9.06632,3872
9.07203,3465
9.07777,4201
9.08348,3603
9.0892,3694
9.09493,3825
9.10065,4418
9.10637,4327
9.1121,3759
9.11782,4236
9.12353,3487
9.12927,3870
9.13498,4266
9.1407,3532
9.14643,3567
9.15215,3956
9.15787,3963
9.1636,3315
9.16932,3200
9.17503,2830
9.18075,3523
9.18648,4409
9.1922,4076
9.19792,3500
9.20365,3577
9.20937,3930
9.21508,4040
9.22082,3691
9.22653,4219
9.23225,4569
9.23798,3795
9.2437,3580
9.24942,3965
9.25515,3758
9.26087,4038
9.26658,3608
9.27232,3776
9.27803,3623
9.28375,3891
9.28948,4552
9.2952,4181
9.30092,3319
9.30663,4095
9.31237,4064
9.31808,3097
9.3238,3596
9.32953,4407
9.33525,4371
9.34097,3594
9.3467,3184
9.35242,4232
9.35813,3451
9.36387,3778
9.36958,3926
9.3753,3512
9.38103,4208
9.38675,4146
9.39247,4878
9.3982,4163
9.40392,3774
9.40963,3998
9.41537,4713
9.42108,4344
9.4268,3521
9.43252,2931
9.43825,3057
9.44397,3471
9.44968,4271
9.45542,4015
9.46113,3622
9.46685,3409
9.47258,3946
9.4783,3711
9.48402,4453
9.48975,3358
9.49547,4539
9.50118,3859
9.50692,3742
9.51263,3239
9.51835,4072
9.52408,3832
9.5298,3687
9.53552,4250
9.54125,4029
9.54697,3906
9.55268,4296
9.5584,4182
9.56413,3982
9.56985,3538
9.57557,2882
9.5813,4111
9.58702,4403
9.59273,3961
9.59847,3388
9.60418,4199
9.6099,4674
9.61563,4141
9.62135,4950
9.62707,4113
9.6328,3249
9.63852,3984
9.64423,3909
9.64997,4260
9.65568,4536
9.6614,4616
9.66713,4915
9.67285,5036
9.67857,4690
9.68428,4044
9.69002,3800
9.69573,3687
9.70145,4473
9.70718,3996
9.7129,4438
9.71862,4125
9.72435,4795
9.73007,4530
9.73578,4757
9.74152,4062
9.74723,4252
9.75295,3823
9.75868,4431
9.7644,4588
9.77012,4323
9.77585,4293
9.78157,4262
9.78728,3984
9.79302,4675
9.79873,4487
9.80445,3910
9.81017,4985
9.8159,3984
9.82162,4441
9.82733,5158
9.83307,4299
9.83878,3402
9.8445,4150
9.85023,4188
9.85595,4410
9.86167,3854
9.8674,3860
9.87312,4786
9.87883,4282
9.88457,4406
9.89028,4193
9.896,3952
9.90173,4265
9.90745,3738
9.91317,3891
9.9189,3496
9.92462,3886
9.93033,4046
9.93605,4692
9.94178,4047
9.9475,4317
9.95322,3856
9.95895,4340
9.96467,3503
9.97038,4265
9.97612,4296
9.98183,4411
9.98755,3917
9.99328,5068
9.999,5385
10.0047,5194
10.0105,4350
10.0162,4324
10.0219,3942
10.0276,4971
10.0333,3294
10.0391,4379
10.0448,4616
10.0505,4064
10.0562,3818
10.0619,3340
10.0677,4360
10.0734,3955
10.0791,3427
10.0848,4513
10.0906,3501
10.0963,4275
10.102,3217
10.1077,4070
10.1134,4371
10.1192,4228
10.1249,3550
10.1306,3864
10.1363,3686
10.1421,3856
10.1478,3239
10.1535,4128
10.1592,4013
10.1649,4041
10.1707,3976
10.1764,4137
10.1821,3829
10.1878,4801
10.1936,4331
10.1993,4896
10.205,4442
10.2107,4078
10.2164,4259
10.2222,4802
10.2279,4160
10.2336,3735
10.2393,4196
10.2451,4204
10.2508,3803
10.2565,3681
10.2622,3638
10.2679,4065
10.2737,4381
10.2794,3423
10.2851,4475
10.2908,4042
10.2966,4483
10.3023,3460
10.308,4038
10.3137,3660
10.3194,4034
10.3252,4917
10.3309,4821
10.3366,4429
10.3423,5091
10.348,3399
10.3538,4139
10.3595,3419
10.3652,4621
10.3709,4021
10.3767,3865
10.3824,3579
10.3881,4341
10.3938,5120
10.3995,4076
10.4053,4933
10.411,4450
10.4167,3366
10.4224,4772
10.4282,5667
10.4339,6923
10.4396,7161
10.4453,6062
10.451,5918
10.4568,4336
10.4625,4673
10.4682,4260
10.4739,4338
10.4797,3620
10.4854,4344
10.4911,3534
10.4968,4402
10.5025,4354
10.5083,4276
10.514,4927
10.5197,3826
10.5254,4167
10.5312,4206
10.5369,3870
10.5426,4321
10.5483,4345
10.554,3913
10.5598,3543
10.5655,4131
10.5712,4186
10.5769,3768
10.5826,3886
10.5884,3628
10.5941,4925
10.5998,5680
10.6055,13246
10.6113,36418
10.617,80827
10.6227,140246
10.6284,175156
10.6341,160277
10.6399,110794
10.6456,52248
10.6513,21388
10.657,10730
10.6628,7801
10.6685,9731
10.6742,11940
10.6799,11900
10.6856,11969
10.6914,8842
10.6971,6534
10.7028,5910
10.7085,4357
10.7143,4905
10.72,4672
10.7257,5841
10.7314,4794
10.7371,4475
10.7429,4768
10.7486,4692
10.7543,5151
10.76,4252
10.7658,5092
10.7715,4470
10.7772,4333
10.7829,3751
10.7886,4112
10.7944,4657
10.8001,4249
10.8058,4038
10.8115,4399
10.8172,4213
10.823,4611
10.8287,4574
10.8344,5624
10.8401,7094
10.8459,7790
10.8516,8813
10.8573,7996
10.863,6108
10.8687,6002
10.8745,4133
10.8802,5532
10.8859,4355
10.8916,4543
10.8974,4733
10.9031,4344
10.9088,3797
10.9145,4441
10.9202,4875
10.926,5134
10.9317,4223
10.9374,4518
10.9431,4562
10.9489,4476
10.9546,3765
10.9603,4348
10.966,4988
10.9717,4565
10.9775,3828
10.9832,4408
10.9889,4479
10.9946,4674
11.0004,5031
11.0061,4361
11.0118,5058
11.0175,5158
11.0232,4528
11.029,4867
11.0347,4519
11.0404,4334
11.0461,5191
11.0519,3708
11.0576,4050
11.0633,4922
11.069,5033
11.0747,4640
11.0805,4049
11.0862,4469
11.0919,4882
11.0976,4374
11.1033,4804
11.1091,4444
11.1148,5369
11.1205,5063
11.1262,5503
11.132,6061
11.1377,4972
11.1434,5086
11.1491,4169
11.1548,5500
11.1606,5273
11.1663,5522
11.172,5325
11.1777,4419
11.1835,4798
11.1892,4340
11.1949,5504
11.2006,5327
11.2063,6708
11.2121,6713
11.2178,6048
11.2235,7125
11.2292,6814
11.235,7753
11.2407,9295
11.2464,9911
11.2521,9991
11.2578,9033
11.2636,9957
11.2693,10096
11.275,9750
11.2807,10429
11.2865,9488
11.2922,8685
11.2979,9595
11.3036,8826
11.3093,8647
11.3151,8854
11.3208,8992
11.3265,8423
11.3322,8463
11.3379,7397
11.3437,7219
11.3494,7707
11.3551,6567
11.3608,7405
11.3666,8081
11.3723,7085
11.378,7171
11.3837,7180
11.3894,8043
11.3952,6785
11.4009,7088
11.4066,7126
11.4123,7684
11.4181,7614
11.4238,7639
11.4295,5865
11.4352,6653
11.4409,7300
11.4467,7443
11.4524,7725
11.4581,6785
11.4638,7069
11.4696,7471
11.4753,7021
11.481,6538
11.4867,6901
11.4924,6375
11.4982,6299
11.5039,7173
11.5096,6944
11.5153,6931
11.5211,7053
11.5268,7027
11.5325,6303
11.5382,5408
11.5439,6389
11.5497,6557
11.5554,6906
11.5611,6622
11.5668,6317
11.5726,6870
11.5783,7478
11.584,6997
11.5897,5484
11.5954,6646
11.6012,7093
11.6069,7015
11.6126,5948
11.6183,5919
11.624,7132
11.6298,5665
11.6355,6195
11.6412,6321
11.6469,6362
11.6527,6379
11.6584,5831
11.6641,6034
11.6698,6085
11.6755,5554
11.6813,6251
11.687,6527
11.6927,6310
11.6984,6011
11.7042,7074
11.7099,6112
11.7156,6915
11.7213,8551
11.727,8289
11.7328,7063
11.7385,6539
11.7442,6094
11.7499,6277
11.7557,6590
11.7614,5609
11.7671,6162
11.7728,5871
11.7785,5864
11.7843,5435
11.79,5959
11.7957,5382
11.8014,6096
11.8072,6197
11.8129,6360
11.8186,6248
11.8243,5647
11.83,5881
11.8358,6644
11.8415,6717
11.8472,6257
11.8529,4952
11.8586,6816
11.8644,6112
11.8701,5133
11.8758,6419
11.8815,5567
11.8873,6334
11.893,5038
11.8987,6699
11.9044,5643
11.9101,6448
11.9159,5587
11.9216,5768
11.9273,6203
11.933,6565
11.9388,5674
11.9445,5192
11.9502,6000
11.9559,5841
11.9616,6587
11.9674,6185
11.9731,6623
11.9788,6614
11.9845,6201
11.9903,6091
11.996,5720
12.0017,5822
12.0074,6134
12.0131,6904
12.0189,5192
12.0246,4207
12.0303,4966
12.036,5853
12.0418,6232
12.0475,6517
12.0532,6440
12.0589,6055
12.0646,5430
12.0704,5074
12.0761,6167
12.0818,6464
12.0875,6679
12.0932,6086
12.099,6284
12.1047,6285
12.1104,6280
12.1161,6435
12.1219,8058
12.1276,11360
12.1333,12161
12.139,13035
12.1447,11464
12.1505,9375
12.1562,6979
12.1619,7093
12.1676,6838
12.1734,6587
12.1791,5718
12.1848,7100
12.1905,5995
12.1962,7022
12.202,6939
12.2077,6369
12.2134,6530
12.2191,6766
12.2249,6137
12.2306,7167
12.2363,6692
12.242,6689
12.2477,5839
12.2535,6323
12.2592,6546
12.2649,6692
12.2706,6157
12.2764,6044
12.2821,6652
12.2878,6530
12.2935,6891
12.2992,7429
12.305,6789
12.3107,7939
12.3164,7644
12.3221,6868
12.3279,7152
12.3336,7588
12.3393,7757
12.345,6207
12.3507,7791
12.3565,6796
12.3622,6986
12.3679,7262
12.3736,7230
12.3793,7756
12.3851,7992
12.3908,8022
12.3965,8162
12.4022,8198
12.408,7802
12.4137,8810
12.4194,9062
12.4251,7986
12.4308,9388
12.4366,9716
12.4423,9148
12.448,9578
12.4537,11642
12.4595,10295
12.4652,9396
12.4709,9920
12.4766,10463
12.4823,9276
12.4881,10882
12.4938,10543
12.4995,9775
12.5052,9626
12.511,9431
12.5167,9408
12.5224,10079
12.5281,9734
12.5338,10279
12.5396,9652
12.5453,11371
12.551,10448
12.5567,10856
12.5625,9574
12.5682,9813
12.5739,9661
12.5796,10808
12.5853,10058
12.5911,10115
12.5968,9812
12.6025,10623
12.6082,9681
12.6139,9914
12.6197,11636
12.6254,12256
12.6311,12743
12.6368,11996
12.6426,11504
12.6483,12683
12.654,13234
12.6597,12005
12.6654,12577
12.6712,11269
12.6769,11547
12.6826,11070
12.6883,11564
12.6941,11245
12.6998,10762
12.7055,11410
12.7112,11354
12.7169,10645
12.7227,10908
12.7284,10862
12.7341,10591
12.7398,12640
12.7456,11428
12.7513,11872
12.757,11169
12.7627,11324
12.7684,10138
12.7742,10084
12.7799,11175
12.7856,10496
12.7913,10445
12.7971,11802
12.8028,12046
12.8085,10978
12.8142,10179
12.8199,12054
12.8257,11645
12.8314,10669
12.8371,11151
12.8428,11635
12.8485,10695
12.8543,10853
12.86,10681
12.8657,11516
12.8714,10637
12.8772,11027
12.8829,11937
12.8886,12742
12.8943,12860
12.9,12501
12.9058,13358
12.9115,11217
12.9172,11423
12.9229,10667
12.9287,9886
12.9344,10622
12.9401,10055
12.9458,10603
12.9515,10598
12.9573,10342
12.963,10513
12.9687,10516
12.9744,9230
12.9802,9527
12.9859,10221
12.9916,9792
12.9973,10743
13.003,9947
13.0088,10017
13.0145,10660
13.0202,10096
13.0259,10775
13.0317,10736
13.0374,10847
13.0431,10461
13.0488,9720
13.0545,10270
13.0603,9994
13.066,9291
13.0717,11051
13.0774,9555
13.0832,9636
13.0889,10775
13.0946,10197
13.1003,10828
13.106,9229
13.1118,9398
13.1175,10498
13.1232,10609
13.1289,10367
13.1346,9049
13.1404,9468
13.1461,9631
13.1518,10675
13.1575,8937
13.1633,9964
13.169,10399
13.1747,10267
13.1804,9179
13.1861,9288
13.1919,9353
13.1976,10267
13.2033,10711
13.209,9959
13.2148,8987
13.2205,10789
13.2262,11101
13.2319,9442
13.2376,8959
13.2434,9294
13.2491,9232
13.2548,10162
13.2605,9813
13.2663,9061
13.272,10261
13.2777,10242
13.2834,9436
13.2891,9324
13.2949,9527
13.3006,10360
13.3063,10143
13.312,10406
13.3178,10122
13.3235,10357
13.3292,10006
13.3349,10315
13.3406,10144
13.3464,10265
13.3521,10539
13.3578,10339
13.3635,10733
13.3692,11115
13.375,9141
13.3807,11565
13.3864,10597
13.3921,10412
13.3979,11555
13.4036,9987
13.4093,10660
13.415,11221
13.4207,10331
13.4265,9988
13.4322,9945
13.4379,10790
13.4436,11174
13.4494,10687
13.4551,10805
13.4608,10800
13.4665,10541
13.4722,10510
13.478,11224
13.4837,11401
13.4894,10379
13.4951,11629
13.5009,10443
13.5066,10727
13.5123,10535
13.518,10932
13.5237,11542
13.5295,10923
13.5352,10985
13.5409,11343
13.5466,10580
13.5524,10492
13.5581,11094
13.5638,10481
13.5695,10917
13.5752,11196
13.581,10086
13.5867,10624
13.5924,12121
13.5981,11697
13.6038,12413
13.6096,12063
13.6153,10557
13.621,11398
13.6267,10763
13.6325,10615
13.6382,11669
13.6439,12069
13.6496,11663
13.6553,12319
13.6611,10684
13.6668,11372
13.6725,11190
13.6782,10767
13.684,9695
13.6897,9726
13.6954,10716
13.7011,10974
13.7068,9939
13.7126,10700
13.7183,10396
13.724,10183
13.7297,10459
13.7355,10126
13.7412,10135
13.7469,10919
13.7526,10629
13.7583,11753
13.7641,12356
13.7698,12054
13.7755,10026
13.7812,11053
13.787,10283
13.7927,10298
13.7984,10746
13.8041,11181
13.8098,10604
13.8156,11191
13.8213,9721
13.827,11152
13.8327,10487
13.8385,12074
13.8442,11125
13.8499,10472
13.8556,11370
13.8613,12033
13.8671,11114
13.8728,10227
13.8785,11532
13.8842,11396
13.8899,10837
13.8957,11433
13.9014,11005
13.9071,11658
13.9128,11361
13.9186,10051
13.9243,11161
13.93,11306
13.9357,11738
13.9414,10614
13.9472,12603
13.9529,12476
13.9586,12879
13.9643,13393
13.9701,12655
13.9758,13690
13.9815,12654
13.9872,12977
13.9929,10897
13.9987,10220
14.0044,11725
14.0101,11895
14.0158,12600
14.0216,11254
14.0273,11984
14.033,11564
14.0387,11646
14.0444,11726
14.0502,12380
14.0559,11590
14.0616,11140
14.0673,11182
14.0731,11580
14.0788,10701
14.0845,11545
14.0902,11446
14.0959,11048
14.1017,12232
14.1074,12698
14.1131,10626
14.1188,10389
14.1245,11846
14.1303,11317
14.136,10218
14.1417,11823
14.1474,12259
14.1532,12782
14.1589,13171
14.1646,13141
14.1703,12064
14.176,12722
14.1818,12695
14.1875,12755
14.1932,10848
14.1989,12290
14.2047,11782
14.2104,11550
14.2161,11431
14.2218,12547
14.2275,11835
14.2333,11394
14.239,11463
14.2447,12367
14.2504,12260
14.2562,12355
14.2619,11434
14.2676,12887
14.2733,12688
14.279,12827
14.2848,12995
14.2905,12395
14.2962,12824
14.3019,12582
14.3077,13528
14.3134,13856
14.3191,13216
14.3248,13181
14.3305,13217
14.3363,12729
14.342,12528
14.3477,13035
14.3534,13000
14.3591,14368
14.3649,13198
14.3706,14215
14.3763,12967
14.382,14203
14.3878,13672
14.3935,14302
14.3992,14311
14.4049,14993
14.4106,12375
14.4164,14054
14.4221,13889
14.4278,14383
14.4335,14302
14.4393,14293
14.445,12852
14.4507,14130
14.4564,13691
14.4621,13788
14.4679,14830
14.4736,13565
14.4793,14041
14.485,14719
14.4908,14558
14.4965,14902
14.5022,15038
14.5079,15701
14.5136,14558
14.5194,13888
14.5251,15978
14.5308,15218
14.5365,15329
14.5423,15214
14.548,16936
14.5537,15422
14.5594,15407
14.5651,13602
14.5709,13527
14.5766,13235
14.5823,14191
14.588,14533
14.5938,15045
14.5995,15215
14.6052,14369
14.6109,15964
14.6166,16172
14.6224,15806
14.6281,14883
14.6338,16658
14.6395,15633
14.6452,16460
14.651,15632
14.6567,14676
14.6624,15810
14.6681,17682
14.6739,16006
14.6796,16519
14.6853,15541
14.691,16162
14.6967,17851
14.7025,16401
14.7082,15961
14.7139,17843
14.7196,17174
14.7254,17281
14.7311,17063
14.7368,15120
14.7425,16285
14.7482,17329
14.754,17316
14.7597,15873
14.7654,17872
14.7711,16929
14.7769,18612
14.7826,17402
14.7883,19319
14.794,17276
14.7997,17807
14.8055,17931
14.8112,19155
14.8169,17012
14.8226,18231
14.8284,18020
14.8341,18603
14.8398,18153
14.8455,19661
14.8512,20064
14.857,18107
14.8627,18827
14.8684,19211
14.8741,20245
14.8798,19085
14.8856,18297
14.8913,18890
14.897,18152
14.9027,19440
14.9085,19389
14.9142,18860
14.9199,19317
14.9256,21047
14.9313,18183
14.9371,20726
14.9428,20924
14.9485,20410
14.9542,23509
14.96,23214
14.9657,20897
14.9714,20532
14.9771,21452
14.9828,21188
14.9886,19392
14.9943,21334
15,19880
15.0057,19777
15.0115,20892
15.0172,20818
15.0229,22164
15.0286,20138
15.0343,20930
15.0401,20947
15.0458,22423
15.0515,20159
15.0572,20407
15.063,20932
15.0687,22126
15.0744,22061
15.0801,23537
15.0858,23209
15.0916,22159
15.0973,22199
15.103,22767
15.1087,21374
15.1144,24540
15.1202,21505
15.1259,23450
15.1316,22382
15.1373,22313
15.1431,21662
15.1488,24526
15.1545,24887
15.1602,23231
15.1659,24363
15.1717,24236
15.1774,26493
15.1831,25885
15.1888,23077
15.1946,23193
15.2003,23668
15.206,25641
15.2117,24832
15.2174,24426
15.2232,26775
15.2289,23723
15.2346,24724
15.2403,24759
15.2461,25930
15.2518,26973
15.2575,25788
15.2632,25598
15.2689,25241
15.2747,24228
15.2804,25227
15.2861,25469
15.2918,25357
15.2976,25014
15.3033,27287
15.309,26667
15.3147,26167
15.3204,27323
15.3262,26995
15.3319,27497
15.3376,27886
15.3433,27214
15.3491,28264
15.3548,26211
15.3605,28440
15.3662,27594
15.3719,28238
15.3777,28848
15.3834,28536
15.3891,28093
15.3948,29110
15.4005,28782
15.4063,31249
15.412,28459
15.4177,31663
15.4234,29535
15.4292,30128
15.4349,27853
15.4406,29754
15.4463,29712
15.452,31047
15.4578,30547
15.4635,29417
15.4692,30999
15.4749,30574
15.4807,31329
15.4864,31106
15.4921,30556
15.4978,30416
15.5035,29911
15.5093,31102
15.515,31881
15.5207,31958
15.5264,33106
15.5322,33351
15.5379,31351
15.5436,33709
15.5493,32132
15.555,32344
15.5608,33501
15.5665,33104
15.5722,32954
15.5779,33027
15.5837,34797
15.5894,33539
15.5951,33168
15.6008,35339
15.6065,33958
15.6123,34437
15.618,34762
15.6237,34122
15.6294,33261
15.6351,34691
15.6409,35674
15.6466,34258
15.6523,34390
15.658,34714
15.6638,35189
15.6695,35762
15.6752,33132
15.6809,35294
15.6866,36050
15.6924,35336
15.6981,35751
15.7038,36585
15.7095,37098
15.7153,35208
15.721,36795
15.7267,37345
15.7324,37238
15.7381,38411
15.7439,37092
15.7496,37303
15.7553,36530
15.761,36100
15.7668,39055
15.7725,38503
15.7782,39479
15.7839,38453
15.7896,39828
15.7954,39852
15.8011,39478
15.8068,40292
15.8125,39688
15.8183,39224
15.824,41686
15.8297,40108
15.8354,40526
15.8411,42529
15.8469,43000
15.8526,43525
15.8583,41219
15.864,42888
15.8698,43429
15.8755,41786
15.8812,43775
15.8869,44627
15.8926,45418
15.8984,47246
15.9041,45009
15.9098,44202
15.9155,43292
15.9212,44564
15.927,45095
15.9327,44076
15.9384,44581
15.9441,43506
15.9499,44139
15.9556,43371
15.9613,46487
15.967,45372
15.9727,43195
15.9785,44433
15.9842,45767
15.9899,45899
15.9956,47608
16.0013,45744
16.0071,46400
16.0128,47376
16.0185,45166
16.0242,46634
16.0299,45404
16.0357,47092
16.0414,47414
16.0471,48573
16.0528,47632
16.0586,49174
16.0643,51177
16.07,47996
16.0757,50206
16.0815,49147
16.0872,50644
16.0929,50819
16.0986,50617
16.1044,50685
16.1101,51358
16.1158,53365
16.1215,50536
16.1272,50872
16.133,52686
16.1387,53829
16.1444,50953
16.1501,52425
16.1558,54895
16.1616,51939
16.1673,53356
16.173,54139
16.1787,55314
16.1844,53892
16.1902,55065
16.1959,54149
16.2016,56686
16.2073,54975
16.2131,54233
16.2188,54412
16.2245,55609
16.2302,57651
16.2359,56806
16.2417,54893
16.2474,57206
16.2531,56876
16.2588,57353
16.2646,58939
16.2703,56058
16.276,56044
16.2817,58122
16.2875,59447
16.2932,58855
16.2989,56943
16.3046,59014
16.3103,60539
16.3161,59484
16.3218,59812
16.3275,60028
16.3332,60285
16.339,61888
16.3447,58683
16.3504,59802
16.3561,60580
16.3618,58187
16.3676,59668
16.3733,61705
16.379,60985
16.3847,61160
16.3904,62908
16.3962,63421
16.4019,62573
16.4076,61721
16.4133,63443
16.419,65198
16.4248,64071
16.4305,63665
16.4362,64134
16.4419,63422
16.4477,66529
16.4534,65997
16.4591,65565
16.4648,67387
16.4705,67059
16.4763,64257
16.482,67377
16.4877,67610
16.4934,67073
16.4992,67108
16.5049,68856
16.5106,67669
16.5163,69138
16.5221,69806
16.5278,66160
16.5335,69848
16.5392,67745
16.5449,68928
16.5507,74164
16.5564,71585
16.5621,69059
16.5678,70955
16.5736,71580
16.5793,69414
16.585,71461
16.5907,70090
16.5964,72155
16.6022,72728
16.6079,74166
16.6136,70747
16.6193,73586
16.6251,70895
16.6308,75045
16.6365,75300
16.6422,76855
16.6479,74094
16.6536,74995
16.6594,76865
16.6651,76636
16.6708,75619
16.6765,74625
16.6823,76474
16.688,76781
16.6937,77144
16.6994,77129
16.7052,77594
16.7109,76360
16.7166,76300
16.7223,78080
16.728,76988
16.7338,80829
16.7395,77557
16.7452,80526
16.7509,81250
16.7567,80143
16.7624,83448
16.7681,86005
16.7738,86463
16.7795,86694
16.7853,84799
16.791,80233
16.7967,84493
16.8024,81983
16.8082,83921
16.8139,84776
16.8196,82323
16.8253,85658
16.831,85127
16.8367,84682
16.8425,85776
16.8482,87006
16.8539,86842
16.8596,86789
16.8654,86478
16.8711,85344
16.8768,86689
16.8825,87026
16.8882,87888
16.894,86384
16.8997,88830
16.9054,89561
16.9111,89934
16.9169,89550
16.9226,91179
16.9283,90427
16.934,92561
16.9398,89817
16.9455,90360
16.9512,92896
16.9569,94545
16.9626,95691
16.9684,90705
16.9741,93642
16.9798,94346
16.9855,92788
16.9913,93395
16.997,93345
17.0027,94062
17.0084,95453
17.0141,96448
17.0199,95295
17.0256,93169
17.0313,93205
17.037,98112
17.0428,95011
17.0485,97483
17.0542,99009
17.0599,96456
17.0656,99027
17.0713,97253
17.0771,97992
17.0828,97622
17.0885,100526
17.0942,98458
17.1,98621
17.1057,100861
17.1114,99877
17.1171,101921
17.1229,98914
17.1286,99628
17.1343,99179
17.14,98623
17.1457,102587
17.1515,105327
17.1572,99971
17.1629,103311
17.1686,102737
17.1744,102936
17.1801,99935
17.1858,102659
17.1915,103571
17.1972,103497
17.203,104073
17.2087,104438
17.2144,103689
17.2201,106537
17.2259,107036
17.2316,105933
17.2373,106188
17.243,107584
17.2487,105758
17.2545,105354
17.2602,104588
17.2659,107888
17.2716,108307
17.2773,108953
17.2831,106057
17.2888,109040
17.2945,106020
17.3002,105750
17.3059,103979
17.3117,106646
17.3174,106268
17.3231,110045
17.3288,108084
17.3346,109989
17.3403,110667
17.346,110689
17.3517,109764
17.3575,109520
17.3632,106943
17.3689,109145
17.3746,112328
17.3804,111411
17.3861,107237
17.3918,109784
17.3975,106807
17.4032,111518
17.409,109858
17.4147,113888
17.4204,108483
17.4261,114014
17.4318,109819
17.4376,112896
17.4433,113714
17.449,112083
17.4547,111960
17.4605,110643
17.4662,112761
17.4719,111291
17.4776,111862
17.4833,111680
17.4891,112942
17.4948,113998
17.5005,114375
17.5062,114985
17.512,111267
17.5177,114757
17.5234,116374
17.5291,115167
17.5348,117403
17.5406,111317
17.5463,117955
17.552,113416
17.5577,116359
17.5635,112865
17.5692,114189
17.5749,117525
17.5806,113004
17.5863,115785
17.5921,112617
17.5978,116105
17.6035,119439
17.6092,117030
17.615,116424
17.6207,119376
17.6264,116854
17.6321,117581
17.6378,116087
17.6436,115657
17.6493,114811
17.655,121637
17.6607,116039
17.6664,116738
17.6722,117304
17.6779,118466
17.6836,116350
17.6893,118394
17.6951,118253
17.7008,114795
17.7065,117182
17.7122,116600
17.7179,117959
17.7237,119722
17.7294,117851
17.7351,117289
17.7408,116264
17.7465,115844
17.7523,119344
17.758,117946
17.7637,117431
17.7694,115269
17.7752,116504
17.7809,115925
17.7866,120713
17.7923,117282
17.7981,120860
17.8038,117629
17.8095,116676
17.8152,115928
17.8209,116703
17.8267,117193
17.8324,121903
17.8381,119823
17.8438,118074
17.8496,118846
17.8553,114842
17.861,116784
17.8667,118626
17.8724,119376
17.8782,119934
17.8839,122188
17.8896,121057
17.8953,120347
17.901,123311
17.9068,120958
17.9125,119170
17.9182,118018
17.9239,117959
17.9297,121521
17.9354,122937
17.9411,117113
17.9468,122915
17.9525,121251
17.9583,120968
17.964,123860
17.9697,121787
17.9754,121103
17.9812,123169
17.9869,120438
17.9926,118891
