C:\MSDCHEM\1\DATA\MANDKHAI\20180626 MTH_C12COA\SLR_NltAB_E57A_BPER_2.d 27 Jun 18   2:37 pm
Start of data points
5.09253,251
5.09827,160
5.10398,176
5.1097,219
5.11543,162
5.12115,220
5.12687,243
5.13258,210
5.13832,186
5.14403,205
5.14975,168
5.15548,201
5.1612,0
5.16692,183
5.17265,220
5.17837,0
5.18408,208
5.18982,185
5.19553,165
5.20125,0
5.20698,171
5.2127,158
5.21842,0
5.22415,164
5.22987,181
5.23558,204
5.24132,239
5.24703,0
5.25275,151
5.25847,235
5.2642,192
5.26992,0
5.27563,175
5.28137,308
5.28708,0
5.2928,0
5.29853,0
5.30425,191
5.30997,159
5.3157,0
5.32142,0
5.32713,201
5.33287,180
5.33858,0
5.3443,0
5.35003,0
5.35575,194
5.36147,153
5.3672,0
5.37292,0
5.37863,0
5.38435,0
5.39008,0
5.3958,0
5.40152,0
5.40725,0
5.41297,0
5.41868,0
5.42442,180
5.43013,0
5.43585,0
5.44158,222
5.4473,178
5.45302,0
5.45875,175
5.46447,0
5.47018,0
5.47592,0
5.48163,304
5.48735,180
5.49308,0
5.4988,0
5.50452,201
5.51023,157
5.51597,0
5.52168,164
5.5274,167
5.53313,0
5.53885,0
5.54457,154
5.5503,0
5.55602,0
5.56173,0
5.56747,155
5.57318,0
5.5789,0
5.58463,0
5.59035,164
5.59607,219
5.6018,155
5.60752,161
5.61323,195
5.61897,189
5.62468,227
5.6304,188
5.63612,0
5.64185,0
5.64757,179
5.65328,0
5.65902,155
5.66473,170
5.67045,0
5.67618,0
5.6819,0
5.68762,0
5.69335,0
5.69907,165
5.70478,185
5.71052,204
5.71623,0
5.72195,0
5.72768,0
5.7334,150
5.73912,165
5.74485,0
5.75057,0
5.75628,0
5.762,0
5.76773,165
5.77345,174
5.77917,0
5.7849,0
5.79062,0
5.79633,187
5.80207,0
5.80778,179
5.8135,0
5.81923,0
5.82495,0
5.83067,0
5.8364,0
5.84212,154
5.84783,0
5.85357,0
5.85928,0
5.865,0
5.87073,0
5.87645,0
5.88217,0
5.88788,0
5.89362,0
5.89933,0
5.90505,0
5.91078,0
5.9165,0
5.92222,0
5.92795,195
5.93367,0
5.93938,0
5.94512,0
5.95083,0
5.95655,0
5.96228,0
5.968,0
5.97372,156
5.97945,0
5.98517,0
5.99088,159
5.99662,0
6.00233,0
6.00805,168
6.01377,172
6.0195,0
6.02522,0
6.03093,0
6.03667,0
6.04238,0
6.0481,174
6.05383,0
6.05955,0
6.06527,0
6.071,212
6.07672,161
6.08243,0
6.08817,162
6.09388,0
6.0996,0
6.10533,0
6.11105,0
6.11677,0
6.1225,0
6.12822,0
6.13393,0
6.13965,195
6.14538,0
6.1511,157
6.15682,0
6.16255,0
6.16827,152
6.17398,190
6.17972,0
6.18543,0
6.19115,0
6.19688,0
6.2026,0
6.20832,0
6.21405,0
6.21977,0
6.22548,175
6.23122,0
6.23693,0
6.24265,0
6.24838,0
6.2541,0
6.25982,0
6.26553,0
6.27127,0
6.27698,0
6.2827,0
6.28843,0
6.29415,0
6.29987,0
6.3056,0
6.31132,0
6.31703,0
6.32277,0
6.32848,172
6.3342,0
6.33993,0
6.34565,185
6.35137,162
6.3571,153
6.36282,0
6.36853,0
6.37427,0
6.37998,0
6.3857,0
6.39142,0
6.39715,0
6.40287,0
6.40858,0
6.41432,0
6.42003,0
6.42575,0
6.43148,156
6.4372,0
6.44292,0
6.44865,0
6.45437,0
6.46008,0
6.46582,0
6.47153,0
6.47725,218
6.48298,0
6.4887,0
6.49442,0
6.50015,0
6.50587,177
6.51158,155
6.5173,0
6.52303,0
6.52875,0
6.53447,0
6.5402,191
6.54592,196
6.55163,480
6.55737,351
6.56308,157
6.5688,184
6.57453,0
6.58025,192
6.58597,0
6.5917,0
6.59742,168
6.60313,160
6.60887,0
6.61458,208
6.6203,197
6.62603,0
6.63175,0
6.63747,0
6.6432,0
6.64892,0
6.65463,0
6.66035,0
6.66608,173
6.6718,0
6.67752,0
6.68325,0
6.68897,0
6.69468,0
6.70042,0
6.70613,0
6.71185,0
6.71758,0
6.7233,153
6.72902,0
6.73475,176
6.74047,234
6.74618,181
6.75192,150
6.75763,0
6.76335,196
6.76908,0
6.7748,174
6.78052,195
6.78623,0
6.79197,205
6.79768,0
6.8034,0
6.80913,0
6.81485,0
6.82057,0
6.8263,0
6.83202,0
6.83773,170
6.84347,0
6.84918,0
6.8549,0
6.86063,0
6.86635,0
6.87207,0
6.8778,0
6.88352,0
6.88923,0
6.89497,0
6.90068,0
6.9064,0
6.91212,0
6.91785,0
6.92357,0
6.92928,0
6.93502,0
6.94073,0
6.94645,151
6.95218,0
6.9579,0
6.96362,0
6.96935,0
6.97507,0
6.98078,0
6.98652,0
6.99223,0
6.99795,0
7.00368,162
7.0094,0
7.01512,0
7.02085,0
7.02657,0
7.03228,0
7.038,0
7.04373,0
7.04945,0
7.05517,0
7.0609,0
7.06662,0
7.07233,0
7.07807,0
7.08378,0
7.0895,0
7.09523,0
7.10095,0
7.10667,0
7.1124,0
7.11812,0
7.12383,0
7.12957,0
7.13528,0
7.141,0
7.14673,196
7.15245,0
7.15817,176
7.16388,199
7.16962,0
7.17533,0
7.18105,0
7.18678,0
7.1925,0
7.19822,0
7.20395,0
7.20967,0
7.21538,0
7.22112,0
7.22683,0
7.23255,0
7.23828,0
7.244,0
7.24972,0
7.25545,0
7.26117,182
7.26688,158
7.27262,157
7.27833,0
7.28405,0
7.28977,0
7.2955,0
7.30122,0
7.30693,0
7.31267,0
7.31838,0
7.3241,0
7.32983,0
7.33555,0
7.34127,0
7.347,0
7.35272,0
7.35843,0
7.36417,0
7.36988,0
7.3756,0
7.38133,0
7.38705,0
7.39277,0
7.3985,0
7.40422,0
7.40993,0
7.41565,0
7.42138,0
7.4271,0
7.43282,0
7.43855,0
7.44427,0
7.44998,0
7.45572,0
7.46143,0
7.46715,0
7.47288,0
7.4786,0
7.48432,0
7.49005,0
7.49577,0
7.50148,0
7.50722,0
7.51293,0
7.51865,0
7.52438,0
7.5301,0
7.53582,0
7.54153,0
7.54727,0
7.55298,0
7.5587,0
7.56443,0
7.57015,0
7.57587,0
7.5816,0
7.58732,0
7.59303,0
7.59877,0
7.60448,0
7.6102,0
7.61593,0
7.62165,0
7.62737,0
7.6331,0
7.63882,0
7.64453,0
7.65027,0
7.65598,0
7.6617,0
7.66742,0
7.67315,0
7.67887,0
7.68458,0
7.69032,0
7.69603,0
7.70175,0
7.70748,0
7.7132,0
7.71892,0
7.72465,159
7.73037,0
7.73608,0
7.74182,0
7.74753,0
7.75325,0
7.75898,0
7.7647,0
7.77042,0
7.77615,0
7.78187,0
7.78758,0
7.7933,0
7.79903,0
7.80475,0
7.81047,0
7.8162,0
7.82192,0
7.82763,0
7.83337,0
7.83908,0
7.8448,0
7.85053,151
7.85625,0
7.86197,0
7.8677,0
7.87342,0
7.87913,0
7.88487,0
7.89058,0
7.8963,0
7.90203,0
7.90775,0
7.91347,0
7.91918,0
7.92492,0
7.93063,0
7.93635,0
7.94208,0
7.9478,0
7.95352,0
7.95925,0
7.96497,0
7.97068,0
7.97642,0
7.98213,0
7.98785,0
7.99358,0
7.9993,0
8.00502,0
8.01075,0
8.01647,0
8.02218,0
8.02792,0
8.03363,0
8.03935,0
8.04507,0
8.0508,0
8.05652,0
8.06223,0
8.06797,0
8.07368,0
8.0794,0
8.08513,0
8.09085,0
8.09657,0
8.1023,0
8.10802,0
8.11373,0
8.11947,0
8.12518,0
8.1309,0
8.13663,0
8.14235,0
8.14807,0
8.1538,0
8.15952,0
8.16523,0
8.17095,0
8.17668,0
8.1824,0
8.18812,0
8.19385,0
8.19957,0
8.20528,0
8.21102,0
8.21673,0
8.22245,0
8.22818,0
8.2339,0
8.23962,0
8.24535,0
8.25107,0
8.25678,0
8.26252,0
8.26823,0
8.27395,0
8.27968,0
8.2854,0
8.29112,0
8.29683,0
8.30257,0
8.30828,0
8.314,0
8.31973,0
8.32545,0
8.33117,0
8.3369,0
8.34262,0
8.34833,0
8.35407,0
8.35978,0
8.3655,0
8.37123,0
8.37695,0
8.38267,0
8.3884,0
8.39412,0
8.39983,0
8.40557,0
8.41128,0
8.417,0
8.42272,0
8.42845,0
8.43417,0
8.43988,0
8.44562,0
8.45133,0
8.45705,0
8.46278,0
8.4685,179
8.47422,0
8.47995,0
8.48567,161
8.49138,0
8.49712,0
8.50283,0
8.50855,153
8.51428,153
8.52,0
8.52572,0
8.53145,0
8.53717,0
8.54288,0
8.5486,0
8.55433,0
8.56005,0
8.56577,0
8.5715,0
8.57722,0
8.58293,0
8.58867,0
8.59438,0
8.6001,0
8.60583,0
8.61155,0
8.61727,0
8.623,0
8.62872,0
8.63443,0
8.64017,0
8.64588,0
8.6516,158
8.65733,0
8.66305,0
8.66877,0
8.67448,0
8.68022,0
8.68593,0
8.69165,0
8.69738,0
8.7031,0
8.70882,0
8.71455,0
8.72027,0
8.72598,0
8.73172,0
8.73743,0
8.74315,0
8.74888,0
8.7546,0
8.76032,0
8.76605,0
8.77177,0
8.77748,0
8.78322,0
8.78893,0
8.79465,0
8.80037,0
8.8061,0
8.81182,0
8.81753,0
8.82327,0
8.82898,0
8.8347,0
8.84043,0
8.84615,0
8.85187,0
8.8576,0
8.86332,0
8.86903,0
8.87477,0
8.88048,0
8.8862,0
8.89193,0
8.89765,0
8.90337,0
8.9091,0
8.91482,0
8.92053,0
8.92625,0
8.93198,0
8.9377,0
8.94342,0
8.94915,0
8.95487,0
8.96058,0
8.96632,0
8.97203,0
8.97775,0
8.98348,0
8.9892,0
8.99492,0
9.00065,0
9.00637,0
9.01208,0
9.01782,0
9.02353,0
9.02925,0
9.03498,0
9.0407,0
9.04642,0
9.05213,0
9.05787,0
9.06358,0
9.0693,0
9.07503,0
9.08075,0
9.08647,0
9.0922,0
9.09792,0
9.10363,0
9.10937,0
9.11508,0
9.1208,0
9.12653,0
9.13225,0
9.13797,0
9.1437,0
9.14942,0
9.15513,0
9.16087,0
9.16658,0
9.1723,0
9.17802,0
9.18375,0
9.18947,0
9.19518,0
9.20092,0
9.20663,0
9.21235,0
9.21808,0
9.2238,0
9.22952,0
9.23525,0
9.24097,0
9.24668,0
9.25242,0
9.25813,0
9.26385,0
9.26958,0
9.2753,0
9.28102,0
9.28675,0
9.29247,0
9.29818,0
9.3039,0
9.30963,0
9.31535,0
9.32107,0
9.3268,0
9.33252,0
9.33823,0
9.34397,0
9.34968,0
9.3554,0
9.36113,0
9.36685,0
9.37257,153
9.3783,0
9.38402,0
9.38973,0
9.39547,0
9.40118,0
9.4069,0
9.41263,0
9.41835,160
9.42407,0
9.42978,0
9.43552,0
9.44123,0
9.44695,0
9.45268,0
9.4584,0
9.46412,0
9.46985,0
9.47557,0
9.48128,0
9.48702,0
9.49273,0
9.49845,0
9.50418,0
9.5099,0
9.51562,0
9.52135,0
9.52707,0
9.53278,0
9.53852,0
9.54423,0
9.54995,0
9.55567,161
9.5614,0
9.56712,0
9.57283,167
9.57857,0
9.58428,0
9.59,0
9.59573,0
9.60145,0
9.60717,0
9.6129,0
9.61862,0
9.62433,0
9.63007,0
9.63578,0
9.6415,0
9.64723,0
9.65295,0
9.65867,0
9.6644,0
9.67012,0
9.67583,0
9.68155,0
9.68728,0
9.693,0
9.69872,0
9.70445,0
9.71017,0
9.71588,0
9.72162,0
9.72733,0
9.73305,0
9.73878,0
9.7445,0
9.75022,0
9.75595,0
9.76167,0
9.76738,0
9.77312,0
9.77883,0
9.78455,0
9.79028,0
9.796,0
9.80172,0
9.80743,0
9.81317,0
9.81888,0
9.8246,0
9.83033,0
9.83605,159
9.84177,0
9.8475,0
9.85322,0
9.85893,0
9.86467,0
9.87038,0
9.8761,0
9.88183,0
9.88755,0
9.89327,0
9.899,0
9.90472,0
9.91043,0
9.91617,0
9.92188,0
9.9276,0
9.93332,0
9.93905,0
9.94477,0
9.95048,0
9.95622,0
9.96193,0
9.96765,0
9.97338,0
9.9791,0
9.98482,0
9.99055,0
9.99627,0
10.002,170
10.0077,0
10.0134,0
10.0192,0
10.0249,0
10.0306,0
10.0363,0
10.0421,0
10.0478,0
10.0535,0
10.0592,0
10.0649,0
10.0707,0
10.0764,0
10.0821,0
10.0878,0
10.0935,0
10.0993,0
10.105,0
10.1107,0
10.1164,0
10.1222,0
10.1279,0
10.1336,0
10.1393,0
10.145,0
10.1508,157
10.1565,0
10.1622,0
10.1679,0
10.1737,0
10.1794,0
10.1851,0
10.1908,0
10.1965,0
10.2023,0
10.208,0
10.2137,0
10.2194,0
10.2252,0
10.2309,0
10.2366,0
10.2423,0
10.248,0
10.2538,0
10.2595,0
10.2652,0
10.2709,0
10.2767,0
10.2824,0
10.2881,0
10.2938,0
10.2995,162
10.3053,0
10.311,0
10.3167,0
10.3224,0
10.3281,0
10.3339,0
10.3396,0
10.3453,0
10.351,0
10.3568,0
10.3625,0
10.3682,0
10.3739,0
10.3796,0
10.3854,0
10.3911,0
10.3968,0
10.4025,0
10.4083,0
10.414,0
10.4197,0
10.4254,0
10.4311,0
10.4369,0
10.4426,0
10.4483,0
10.454,0
10.4598,0
10.4655,0
10.4712,0
10.4769,0
10.4826,0
10.4884,0
10.4941,0
10.4998,0
10.5055,0
10.5113,0
10.517,0
10.5227,0
10.5284,0
10.5341,0
10.5399,0
10.5456,0
10.5513,0
10.557,0
10.5628,0
10.5685,0
10.5742,0
10.5799,0
10.5856,0
10.5914,0
10.5971,0
10.6028,0
10.6085,0
10.6142,0
10.62,0
10.6257,0
10.6314,0
10.6371,0
10.6429,0
10.6486,0
10.6543,0
10.66,0
10.6657,0
10.6715,0
10.6772,0
10.6829,0
10.6886,0
10.6944,0
10.7001,0
10.7058,0
10.7115,0
10.7172,182
10.723,0
10.7287,0
10.7344,0
10.7401,0
10.7459,0
10.7516,164
10.7573,0
10.763,0
10.7687,0
10.7745,0
10.7802,167
10.7859,0
10.7916,158
10.7974,0
10.8031,0
10.8088,0
10.8145,0
10.8202,0
10.826,151
10.8317,0
10.8374,0
10.8431,0
10.8488,0
10.8546,0
10.8603,0
10.866,0
10.8717,0
10.8775,0
10.8832,0
10.8889,0
10.8946,0
10.9003,0
10.9061,0
10.9118,0
10.9175,0
10.9232,0
10.929,0
10.9347,0
10.9404,0
10.9461,0
10.9518,0
10.9576,0
10.9633,0
10.969,0
10.9747,0
10.9805,0
10.9862,256
10.9919,0
10.9976,0
11.0033,0
11.0091,0
11.0148,171
11.0205,0
11.0262,172
11.032,0
11.0377,0
11.0434,0
11.0491,200
11.0548,0
11.0606,0
11.0663,0
11.072,0
11.0777,0
11.0834,0
11.0892,0
11.0949,0
11.1006,0
11.1063,0
11.1121,0
11.1178,0
11.1235,0
11.1292,0
11.1349,0
11.1407,155
11.1464,0
11.1521,0
11.1578,0
11.1636,167
11.1693,0
11.175,155
11.1807,0
11.1864,0
11.1922,0
11.1979,0
11.2036,0
11.2093,0
11.2151,0
11.2208,0
11.2265,0
11.2322,172
11.2379,0
11.2437,0
11.2494,0
11.2551,0
11.2608,153
11.2666,0
11.2723,0
11.278,0
11.2837,0
11.2894,0
11.2952,0
11.3009,239
11.3066,0
11.3123,0
11.3181,157
11.3238,0
11.3295,0
11.3352,158
11.3409,0
11.3467,0
11.3524,0
11.3581,0
11.3638,161
11.3695,0
11.3753,0
11.381,198
11.3867,0
11.3924,0
11.3982,188
11.4039,0
11.4096,0
11.4153,0
11.421,0
11.4268,0
11.4325,0
11.4382,0
11.4439,0
11.4497,150
11.4554,0
11.4611,173
11.4668,0
11.4725,0
11.4783,0
11.484,0
11.4897,154
11.4954,0
11.5012,0
11.5069,0
11.5126,0
11.5183,0
11.524,0
11.5298,0
11.5355,0
11.5412,0
11.5469,0
11.5527,190
11.5584,0
11.5641,0
11.5698,170
11.5755,159
11.5813,0
11.587,0
11.5927,167
11.5984,0
11.6041,0
11.6099,0
11.6156,0
11.6213,0
11.627,186
11.6328,0
11.6385,0
11.6442,230
11.6499,0
11.6556,0
11.6614,173
11.6671,0
11.6728,0
11.6785,0
11.6843,152
11.69,0
11.6957,0
11.7014,193
11.7071,0
11.7129,183
11.7186,221
11.7243,184
11.73,0
11.7358,0
11.7415,157
11.7472,0
11.7529,172
11.7586,0
11.7644,0
11.7701,0
11.7758,0
11.7815,165
11.7873,185
11.793,168
11.7987,0
11.8044,163
11.8101,0
11.8159,0
11.8216,157
11.8273,210
11.833,0
11.8387,193
11.8445,0
11.8502,179
11.8559,0
11.8616,0
11.8674,181
11.8731,0
11.8788,194
11.8845,0
11.8902,0
11.896,156
11.9017,0
11.9074,0
11.9131,173
11.9189,0
11.9246,0
11.9303,0
11.936,0
11.9417,173
11.9475,0
11.9532,0
11.9589,0
11.9646,0
11.9704,169
11.9761,0
11.9818,164
11.9875,0
11.9932,203
11.999,170
12.0047,156
12.0104,0
12.0161,0
12.0219,169
12.0276,0
12.0333,155
12.039,161
12.0447,0
12.0505,200
12.0562,165
12.0619,219
12.0676,0
12.0734,0
12.0791,173
12.0848,196
12.0905,0
12.0962,0
12.102,0
12.1077,150
12.1134,161
12.1191,230
12.1248,218
12.1306,157
12.1363,214
12.142,0
12.1477,0
12.1535,0
12.1592,0
12.1649,0
12.1706,0
12.1763,195
12.1821,0
12.1878,186
12.1935,211
12.1992,0
12.205,220
12.2107,232
12.2164,165
12.2221,155
12.2278,191
12.2336,179
12.2393,214
12.245,0
12.2507,188
12.2565,216
12.2622,0
12.2679,0
12.2736,204
12.2793,0
12.2851,173
12.2908,208
12.2965,0
12.3022,0
12.308,195
12.3137,207
12.3194,198
12.3251,424
12.3308,0
12.3366,192
12.3423,160
12.348,0
12.3537,163
12.3594,212
12.3652,169
12.3709,209
12.3766,184
12.3823,171
12.3881,231
12.3938,247
12.3995,193
12.4052,219
12.4109,198
12.4167,0
12.4224,177
12.4281,192
12.4338,0
12.4396,209
12.4453,245
12.451,196
12.4567,189
12.4624,196
12.4682,299
12.4739,254
12.4796,182
12.4853,184
12.4911,161
12.4968,277
12.5025,213
12.5082,178
12.5139,212
12.5197,214
12.5254,225
12.5311,0
12.5368,249
12.5426,0
12.5483,187
12.554,172
12.5597,214
12.5654,208
12.5712,203
12.5769,263
12.5826,403
12.5883,0
12.594,167
12.5998,233
12.6055,166
12.6112,229
12.6169,365
12.6227,215
12.6284,280
12.6341,218
12.6398,156
12.6455,201
12.6513,202
12.657,172
12.6627,238
12.6684,203
12.6742,216
12.6799,204
12.6856,165
12.6913,180
12.697,0
12.7028,320
12.7085,218
12.7142,277
12.7199,218
12.7257,362
12.7314,175
12.7371,254
12.7428,190
12.7485,244
12.7543,246
12.76,182
12.7657,242
12.7714,233
12.7772,0
12.7829,151
12.7886,434
12.7943,340
12.8,344
12.8058,248
12.8115,252
12.8172,246
12.8229,188
12.8287,339
12.8344,241
12.8401,258
12.8458,251
12.8515,210
12.8573,245
12.863,245
12.8687,305
12.8744,209
12.8801,208
12.8859,200
12.8916,437
12.8973,252
12.903,282
12.9088,202
12.9145,335
12.9202,275
12.9259,0
12.9316,187
12.9374,211
12.9431,384
12.9488,284
12.9545,175
12.9603,290
12.966,283
12.9717,233
12.9774,227
12.9831,221
12.9889,222
12.9946,219
13.0003,399
13.006,266
13.0118,284
13.0175,301
13.0232,275
13.0289,223
13.0346,222
13.0404,210
13.0461,273
13.0518,329
13.0575,249
13.0633,254
13.069,158
13.0747,319
13.0804,0
13.0861,291
13.0919,207
13.0976,300
13.1033,244
13.109,581
13.1147,252
13.1205,270
13.1262,191
13.1319,303
13.1376,287
13.1434,423
13.1491,219
13.1548,258
13.1605,432
13.1662,253
13.172,513
13.1777,351
13.1834,345
13.1891,338
13.1949,354
13.2006,179
13.2063,311
13.212,521
13.2177,455
13.2235,348
13.2292,282
13.2349,228
13.2406,316
13.2464,228
13.2521,333
13.2578,512
13.2635,226
13.2692,433
13.275,310
13.2807,243
13.2864,300
13.2921,417
13.2979,447
13.3036,253
13.3093,304
13.315,444
13.3207,278
13.3265,312
13.3322,270
13.3379,509
13.3436,251
13.3493,326
13.3551,363
13.3608,263
13.3665,310
13.3722,340
13.378,345
13.3837,491
13.3894,364
13.3951,499
13.4008,260
13.4066,229
13.4123,475
13.418,235
13.4237,258
13.4295,337
13.4352,448
13.4409,479
13.4466,240
13.4523,265
13.4581,222
13.4638,266
13.4695,580
13.4752,352
13.481,357
13.4867,333
13.4924,597
13.4981,599
13.5038,257
13.5096,279
13.5153,368
13.521,541
13.5267,295
13.5325,544
13.5382,691
13.5439,553
13.5496,299
13.5553,627
13.5611,410
13.5668,596
13.5725,418
13.5782,559
13.584,352
13.5897,370
13.5954,346
13.6011,338
13.6068,540
13.6126,535
13.6183,374
13.624,521
13.6297,534
13.6354,575
13.6412,632
13.6469,581
13.6526,406
13.6583,385
13.6641,546
13.6698,506
13.6755,566
13.6812,480
13.6869,516
13.6927,556
13.6984,514
13.7041,642
13.7098,304
13.7156,590
13.7213,537
13.727,627
13.7327,536
13.7384,659
13.7442,399
13.7499,436
13.7556,531
13.7613,474
13.7671,382
13.7728,665
13.7785,361
13.7842,523
13.7899,603
13.7957,398
13.8014,546
13.8071,381
13.8128,379
13.8186,586
13.8243,643
13.83,695
13.8357,602
13.8414,667
13.8472,757
13.8529,457
13.8586,578
13.8643,626
13.87,524
13.8758,502
13.8815,400
13.8872,712
13.8929,556
13.8987,623
13.9044,679
13.9101,865
13.9158,481
13.9215,578
13.9273,524
13.933,708
13.9387,749
13.9444,635
13.9502,688
13.9559,645
13.9616,569
13.9673,467
13.973,653
13.9788,441
13.9845,641
13.9902,755
13.9959,507
14.0017,583
14.0074,667
14.0131,578
14.0188,689
14.0245,701
14.0303,614
14.036,549
14.0417,648
14.0474,617
14.0532,752
14.0589,693
14.0646,754
14.0703,582
14.076,512
14.0818,565
14.0875,690
14.0932,704
14.0989,683
14.1047,495
14.1104,378
14.1161,794
14.1218,660
14.1275,903
14.1333,560
14.139,711
14.1447,704
14.1504,686
14.1561,649
14.1619,740
14.1676,725
14.1733,668
14.179,933
14.1848,705
14.1905,798
14.1962,999
14.2019,1126
14.2076,1058
14.2134,1997
14.2191,4353
14.2248,5716
14.2305,6966
14.2363,6250
14.242,3959
14.2477,2186
14.2534,1623
14.2591,1082
14.2649,1041
14.2706,1034
14.2763,707
14.282,634
14.2878,1147
14.2935,893
14.2992,675
14.3049,811
14.3106,1148
14.3164,789
14.3221,966
14.3278,868
14.3335,801
14.3393,659
14.345,622
14.3507,852
14.3564,835
14.3621,711
14.3679,760
14.3736,949
14.3793,938
14.385,765
14.3907,687
14.3965,845
14.4022,690
14.4079,838
14.4136,778
14.4194,831
14.4251,879
14.4308,913
14.4365,794
14.4422,1019
14.448,1130
14.4537,1177
14.4594,1087
14.4651,973
14.4709,786
14.4766,789
14.4823,1018
14.488,805
14.4937,768
14.4995,904
14.5052,1159
14.5109,945
14.5166,766
14.5224,1292
14.5281,998
14.5338,1002
14.5395,1328
14.5452,1028
14.551,1062
14.5567,956
14.5624,772
14.5681,950
14.5739,1065
14.5796,1170
14.5853,1258
14.591,984
14.5967,792
14.6025,868
14.6082,1271
14.6139,1247
14.6196,1341
14.6253,1030
14.6311,1184
14.6368,909
14.6425,1387
14.6482,1313
14.654,1010
14.6597,1030
14.6654,973
14.6711,1272
14.6768,832
14.6826,1142
14.6883,953
14.694,1048
14.6997,1029
14.7055,1147
14.7112,875
14.7169,1261
14.7226,1395
14.7283,1023
14.7341,1241
14.7398,1202
14.7455,1120
14.7512,1317
14.757,1113
14.7627,1246
14.7684,893
14.7741,950
14.7798,1065
14.7856,1217
14.7913,1155
14.797,1150
14.8027,1299
14.8085,1291
14.8142,1353
14.8199,1147
14.8256,918
14.8313,1162
14.8371,853
14.8428,1713
14.8485,1659
14.8542,1480
14.86,1071
14.8657,1194
14.8714,1034
14.8771,1067
14.8828,1171
14.8886,1341
14.8943,1113
14.9,1233
14.9057,1189
14.9114,1365
14.9172,1091
14.9229,1598
14.9286,1261
14.9343,1776
14.9401,1491
14.9458,1587
14.9515,1196
14.9572,1485
14.9629,927
14.9687,1667
14.9744,1397
14.9801,1350
14.9858,1851
14.9916,1451
14.9973,1359
15.003,1820
15.0087,1402
15.0144,1650
15.0202,1179
15.0259,1781
15.0316,1151
15.0373,1213
15.0431,1011
15.0488,1462
15.0545,1703
15.0602,1592
15.0659,1170
15.0717,1416
15.0774,1625
15.0831,1509
15.0888,1384
15.0946,1635
15.1003,1626
15.106,1890
15.1117,1600
15.1174,1827
15.1232,1901
15.1289,1734
15.1346,1504
15.1403,1776
15.146,1289
15.1518,2071
15.1575,1681
15.1632,1687
15.1689,1694
15.1747,1729
15.1804,2160
15.1861,1904
15.1918,1996
15.1975,1502
15.2033,1594
15.209,1954
15.2147,1931
15.2204,1837
15.2262,1872
15.2319,1393
15.2376,1498
15.2433,1846
15.249,1300
15.2548,1524
15.2605,1800
15.2662,1753
15.2719,1738
15.2777,2018
15.2834,1770
15.2891,1940
15.2948,1739
15.3005,1723
15.3063,2142
15.312,1623
15.3177,1936
15.3234,2128
15.3292,2172
15.3349,1995
15.3406,1864
15.3463,2024
15.352,1916
15.3578,1696
15.3635,1930
15.3692,1889
15.3749,2215
15.3806,2058
15.3864,2137
15.3921,1779
15.3978,1954
15.4035,1885
15.4093,2955
15.415,2335
15.4207,1707
15.4264,1701
15.4321,2145
15.4379,2236
15.4436,2037
15.4493,2384
15.455,2448
15.4608,2008
15.4665,2313
15.4722,2600
15.4779,2460
15.4836,2562
15.4894,2269
15.4951,2381
15.5008,2514
15.5065,2385
15.5123,2593
15.518,2380
15.5237,2319
15.5294,2471
15.5351,2312
15.5409,2654
15.5466,2413
15.5523,2345
15.558,2419
15.5638,2217
15.5695,2587
15.5752,1994
15.5809,2773
15.5866,2956
15.5924,2501
15.5981,2030
15.6038,2579
15.6095,2313
15.6153,2270
15.621,2751
15.6267,2847
15.6324,2365
15.6381,2715
15.6439,2615
15.6496,2846
15.6553,2627
15.661,2952
15.6667,2567
15.6725,2993
15.6782,2503
15.6839,2599
15.6896,2388
15.6954,2874
15.7011,2766
15.7068,2640
15.7125,2533
15.7182,3057
15.724,2685
15.7297,2968
15.7354,2627
15.7411,3353
15.7469,2485
15.7526,2635
15.7583,2833
15.764,2835
15.7697,3418
15.7755,2634
15.7812,2866
15.7869,3304
15.7926,2897
15.7984,3103
15.8041,3023
15.8098,3151
15.8155,3080
15.8212,2761
15.827,3142
15.8327,3129
15.8384,3200
15.8441,3031
15.8499,2831
15.8556,3550
15.8613,2960
15.867,3172
15.8727,3289
15.8785,3534
15.8842,3050
15.8899,2918
15.8956,3394
15.9013,3218
15.9071,2788
15.9128,2735
15.9185,3433
15.9242,3406
15.93,3573
15.9357,3427
15.9414,3072
15.9471,3485
15.9528,3019
15.9586,3611
15.9643,3210
15.97,3469
15.9757,3632
15.9815,3317
15.9872,3615
15.9929,3647
15.9986,3115
16.0043,3404
16.0101,3538
16.0158,3456
16.0215,3573
16.0272,3736
16.033,3525
16.0387,3587
16.0444,3278
16.0501,3991
16.0558,3870
16.0616,3795
16.0673,3940
16.073,3826
16.0787,3822
16.0845,3276
16.0902,3805
16.0959,3492
16.1016,3840
16.1073,4089
16.1131,3532
16.1188,3850
16.1245,3798
16.1302,4053
16.1359,3810
16.1417,3769
16.1474,3753
16.1531,3961
16.1588,3719
16.1645,4404
16.1703,3932
16.176,4023
16.1817,4076
16.1874,3731
16.1932,4324
16.1989,3426
16.2046,4205
16.2103,3859
16.216,4499
16.2218,4187
16.2275,4056
16.2332,4074
16.2389,4200
16.2447,4032
16.2504,4018
16.2561,4408
16.2618,4759
16.2676,4172
16.2733,4479
16.279,4540
16.2847,4775
16.2904,4521
16.2962,4557
16.3019,4303
16.3076,4404
16.3133,5015
16.3191,4892
16.3248,4373
16.3305,4891
16.3362,4948
16.3419,4632
16.3477,4688
16.3534,4904
16.3591,4210
16.3648,4740
16.3706,4487
16.3763,4058
16.382,4265
16.3877,4644
16.3934,5501
16.3991,4651
16.4049,5046
16.4106,4507
16.4163,4667
16.422,5134
16.4278,4770
16.4335,4375
16.4392,4930
16.4449,4487
16.4507,4429
16.4564,4879
16.4621,4985
16.4678,5032
16.4735,4863
16.4793,4889
16.485,4971
16.4907,5890
16.4964,4966
16.5022,5047
16.5079,5009
16.5136,4923
16.5193,5496
16.525,5463
16.5308,5125
16.5365,4874
16.5422,5147
16.5479,5087
16.5537,5675
16.5594,5337
16.5651,5169
16.5708,5249
16.5765,5355
16.5822,5392
16.588,5428
16.5937,5405
16.5994,5656
16.6051,5863
16.6109,5788
16.6166,4803
16.6223,5980
16.628,5507
16.6337,5804
16.6395,5275
16.6452,5299
16.6509,6487
16.6566,5413
16.6624,6454
16.6681,5396
16.6738,5860
16.6795,5710
16.6853,5906
16.691,6466
16.6967,5801
16.7024,6655
16.7081,5814
16.7139,6064
16.7196,6222
16.7253,6134
16.731,6263
16.7368,5881
16.7425,6005
16.7482,6273
16.7539,5435
16.7596,6064
16.7654,5841
16.7711,5963
16.7768,6223
16.7825,6526
16.7883,5909
16.794,6225
16.7997,6395
16.8054,5725
16.8111,5641
16.8168,6347
16.8226,6228
16.8283,6542
16.834,6540
16.8397,7089
16.8455,6232
16.8512,6837
16.8569,6720
16.8626,6416
16.8684,7122
16.8741,6939
16.8798,6687
16.8855,6361
16.8912,6628
16.897,6970
16.9027,6994
16.9084,6982
16.9141,7044
16.9199,7037
16.9256,6953
16.9313,7330
16.937,7129
16.9427,7857
16.9485,6169
16.9542,7003
16.9599,7218
16.9656,7231
16.9714,7145
16.9771,7360
16.9828,6978
16.9885,7249
16.9942,7490
17,7396
17.0057,7260
17.0114,7080
17.0171,7988
17.0228,7761
17.0286,7302
17.0343,7290
17.04,6917
17.0457,7465
17.0514,7866
17.0572,7643
17.0629,7214
17.0686,7851
17.0743,6807
17.0801,7753
17.0858,8044
17.0915,7525
17.0972,7235
17.103,8116
17.1087,7277
17.1144,8250
17.1201,8461
17.1259,7307
17.1316,8282
17.1373,8117
17.143,7709
17.1487,8648
17.1545,7124
17.1602,8574
17.1659,8053
17.1716,8232
17.1773,8234
17.1831,8551
17.1888,8089
17.1945,8427
17.2002,8791
17.206,7840
17.2117,8545
17.2174,8528
17.2231,8283
17.2288,8352
17.2346,8340
17.2403,8268
17.246,9035
17.2517,9170
17.2574,9123
17.2632,8523
17.2689,8150
17.2746,9104
17.2803,8972
17.286,9069
17.2918,8683
17.2975,9293
17.3032,9197
17.3089,9302
17.3147,9513
17.3204,8786
17.3261,9495
17.3318,9720
17.3376,9007
17.3433,8103
17.349,9534
17.3547,9155
17.3605,9551
17.3662,8950
17.3719,9897
17.3776,9290
17.3833,9274
17.3891,9576
17.3948,9296
17.4005,9908
17.4062,9669
17.4119,8768
17.4177,10173
17.4234,10384
17.4291,9720
17.4348,9468
17.4406,9394
17.4463,10544
17.452,10211
17.4577,10083
17.4634,10123
17.4692,10481
17.4749,9905
17.4806,10059
17.4863,10202
17.4921,10425
17.4978,10326
17.5035,10412
17.5092,10576
17.5149,9787
17.5207,10946
17.5264,10822
17.5321,10423
17.5378,11372
17.5436,10002
17.5493,10347
17.555,10236
17.5607,10232
17.5664,10896
17.5722,11724
17.5779,11003
17.5836,11407
17.5893,9503
17.5951,11465
17.6008,11173
17.6065,10974
17.6122,11233
17.6179,10639
17.6237,10757
17.6294,10709
17.6351,11583
17.6408,11762
17.6466,11074
17.6523,11156
17.658,11492
17.6637,11408
17.6694,11529
17.6752,10809
17.6809,11346
17.6866,11938
17.6923,11666
17.698,11638
17.7038,11296
17.7095,12060
17.7152,11371
17.7209,11786
17.7266,11723
17.7324,11421
17.7381,11865
17.7438,11508
17.7495,12026
17.7553,12420
17.761,12794
17.7667,11966
17.7724,12198
17.7782,11676
17.7839,13004
17.7896,12539
17.7953,11777
17.801,12244
17.8068,11879
17.8125,12263
17.8182,11903
17.8239,11799
17.8297,11976
17.8354,11833
17.8411,12246
17.8468,12443
17.8525,12726
17.8583,12578
17.864,12855
17.8697,12767
17.8754,12671
17.8812,12095
17.8869,12985
17.8926,12942
17.8983,12822
17.904,12921
17.9098,12561
17.9155,13640
17.9212,12900
17.9269,13247
17.9326,12831
17.9384,12728
17.9441,13573
17.9498,13063
17.9555,12551
17.9613,13590
17.967,12636
17.9727,13147
17.9784,13488
17.9841,14461
17.9899,13882
17.9956,13813
18.0013,13496
18.007,14061
18.0128,13808
18.0185,14680
18.0242,14535
18.0299,14700
18.0356,14167
18.0414,14327
18.0471,14043
18.0528,14444
18.0585,13961
18.0643,14802
18.07,15081
18.0757,14693
18.0814,14380
18.0871,14310
18.0929,13984
18.0986,14034
18.1043,14161
18.11,13948
18.1158,15231
18.1215,14763
18.1272,14158
18.1329,14988
18.1386,14560
18.1443,15055
18.1501,14552
18.1558,14341
18.1615,15192
18.1672,14231
18.173,15517
18.1787,14446
18.1844,15405
18.1901,14551
18.1959,14571
18.2016,15897
18.2073,15906
18.213,15102
18.2187,15738
18.2245,14965
18.2302,15570
18.2359,15857
18.2416,15436
18.2474,15710
18.2531,15605
18.2588,16043
18.2645,15673
18.2702,16496
18.276,15861
18.2817,16142
18.2874,16028
18.2931,15130
18.2989,16271
18.3046,16488
18.3103,15936
18.316,16474
18.3217,16943
18.3275,15720
18.3332,16257
18.3389,16442
18.3446,16262
18.3504,16762
18.3561,16990
18.3618,16829
18.3675,16630
18.3732,16259
18.379,16458
18.3847,16292
18.3904,16751
18.3961,16135
18.4019,16124
18.4076,17159
18.4133,17148
18.419,16909
18.4247,17220
18.4305,17327
18.4362,17009
18.4419,15998
18.4476,17592
18.4533,17045
18.4591,17635
18.4648,16871
18.4705,17635
18.4762,17042
18.482,17879
18.4877,18788
18.4934,17205
18.4991,17492
18.5048,17643
18.5106,17844
18.5163,17733
18.522,17595
18.5277,18210
18.5335,17743
18.5392,18151
18.5449,17821
18.5506,17080
18.5563,17683
18.562,18691
18.5678,18599
18.5735,17533
18.5792,18639
18.5849,17546
18.5907,17474
18.5964,18570
18.6021,18272
18.6078,18345
18.6136,18108
18.6193,17729
18.625,18208
18.6307,17893
18.6365,18153
18.6422,18844
18.6479,17918
18.6536,18480
18.6593,18545
18.6651,18903
18.6708,18208
18.6765,19837
18.6822,19018
18.6879,19000
18.6937,18434
18.6994,18753
18.7051,18335
18.7108,19064
18.7166,19658
18.7223,18340
18.728,18894
18.7337,19001
18.7394,18980
18.7452,18828
18.7509,19186
18.7566,18891
18.7623,18415
18.7681,19426
18.7738,19579
18.7795,19243
18.7852,19016
18.7909,19831
18.7967,19041
18.8024,19027
18.8081,18467
18.8138,19896
18.8196,19934
18.8253,20097
18.831,20138
18.8367,20274
18.8424,19764
18.8482,19506
18.8539,20090
18.8596,19907
18.8653,20303
18.8711,19691
18.8768,19650
18.8825,20807
18.8882,20725
18.8939,20677
18.8997,19933
18.9054,20254
18.9111,19307
18.9168,20623
18.9225,21003
18.9283,21009
18.934,21033
18.9397,20599
18.9454,20511
18.9512,20383
18.9569,21114
18.9626,20287
18.9683,21002
18.974,20172
18.9798,20869
18.9855,19921
18.9912,21026
18.9969,20140
19.0026,21007
19.0084,21525
19.0141,19716
19.0198,20026
19.0255,21078
19.0313,21169
19.037,21156
19.0427,19812
19.0484,20520
19.0542,22078
19.0599,21148
19.0656,20554
19.0713,21827
19.077,21129
19.0828,20931
19.0885,21613
19.0942,21003
19.0999,20944
19.1057,21770
19.1114,21011
19.1171,20784
19.1228,20434
19.1285,20084
19.1343,21744
19.14,21826
19.1457,21175
19.1514,21616
19.1572,21343
19.1629,21863
19.1686,23161
19.1743,21209
19.18,21272
19.1858,21162
19.1915,20253
19.1972,21961
19.2029,21621
19.2086,21034
19.2144,22586
19.2201,21519
19.2258,23059
19.2315,21720
19.2373,21005
19.243,20733
19.2487,21077
19.2544,21980
19.2601,21785
19.2659,22560
19.2716,21804
19.2773,22022
19.283,21481
19.2888,21963
19.2945,21617
19.3002,21252
19.3059,21046
19.3116,20970
19.3174,21739
19.3231,22559
19.3288,21767
19.3345,21785
19.3403,21488
19.346,22059
19.3517,21115
19.3574,22194
19.3631,21504
19.3689,21116
19.3746,21956
19.3803,21460
19.386,21762
19.3918,21400
19.3975,21955
19.4032,21887
19.4089,21242
19.4146,21701
19.4204,21932
19.4261,21920
19.4318,22600
19.4375,22831
19.4432,22471
19.449,20867
19.4547,22944
19.4604,20965
19.4661,21508
19.4719,21740
19.4776,22043
19.4833,21785
19.489,21844
19.4947,22621
19.5005,21961
19.5062,21533
19.5119,22154
19.5176,22721
19.5234,23158
19.5291,21766
19.5348,21430
19.5405,21810
19.5462,21867
19.552,21209
19.5577,22285
19.5634,21595
19.5691,21666
19.5749,22029
19.5806,21853
19.5863,22037
19.592,22148
19.5977,21417
19.6035,21307
19.6092,21056
19.6149,20297
19.6206,22460
19.6264,21937
19.6321,21483
19.6378,21528
19.6435,21582
19.6492,22010
19.6549,22133
19.6607,22167
19.6664,22059
19.6721,21425
19.6778,20886
19.6836,22140
19.6893,20982
19.695,21363
19.7007,22896
19.7065,21706
19.7122,21796
19.7179,22118
19.7236,20801
19.7293,22290
19.7351,22052
19.7408,22154
19.7465,21898
19.7522,21714
19.758,20904
19.7637,22004
19.7694,21553
19.7751,21391
19.7808,20546
19.7866,22083
19.7923,20987
19.798,21318
19.8037,20950
19.8095,21417
19.8152,22452
19.8209,22249
19.8266,21354
19.8323,21183
19.8381,20802
19.8438,22731
19.8495,21443
19.8552,22707
19.861,22670
19.8667,21602
19.8724,22712
19.8781,21993
19.8838,22434
19.8896,20654
19.8953,22409
19.901,22141
19.9067,22294
19.9125,22656
19.9182,22196
19.9239,21285
19.9296,21299
19.9353,21739
19.9411,21911
19.9468,21018
19.9525,21532
19.9582,22797
19.9639,21771
19.9697,21572
19.9754,21383
19.9811,22254
19.9868,20817
19.9926,21091
19.9983,21934
20.004,21883
20.0097,22302
20.0154,21986
20.0212,22685
20.0269,22897
20.0326,22715
20.0383,21232
20.0441,22332
20.0498,21487
20.0555,22423
20.0612,22376
20.0669,21576
20.0726,22387
20.0784,22307
20.0841,22461
20.0898,22457
20.0955,22223
20.1013,22533
20.107,21971
20.1127,21692
20.1184,23199
20.1242,22265
20.1299,21877
20.1356,21242
20.1413,22499
20.1471,21648
20.1528,21224
20.1585,21741
20.1642,21493
20.1699,21533
20.1757,21246
20.1814,23336
20.1871,20955
20.1928,23368
20.1985,22371
20.2043,22137
20.21,21819
20.2157,21341
20.2214,21475
20.2272,21315
20.2329,22494
20.2386,21669
20.2443,22253
20.25,22077
20.2558,21390
20.2615,22324
20.2672,22057
20.2729,21912
20.2787,22133
20.2844,22267
20.2901,21620
20.2958,20876
20.3015,22102
20.3073,22167
20.313,22319
20.3187,21770
20.3244,21463
20.3302,21430
20.3359,21311
20.3416,22067
20.3473,22792
20.353,21861
20.3588,21074
20.3645,21827
20.3702,22241
20.3759,22540
20.3817,21693
20.3874,21726
20.3931,23345
20.3988,21591
20.4045,21968
20.4103,21933
20.416,21612
20.4217,22727
20.4274,21263
20.4331,22316
20.4389,22168
20.4446,22332
20.4503,22423
20.456,21367
20.4618,21580
20.4675,22447
20.4732,21677
20.4789,22474
20.4846,22120
20.4904,22591
20.4961,21407
20.5018,21306
20.5075,22561
20.5132,21531
20.519,22061
20.5247,21866
20.5304,22453
20.5361,22554
20.5419,22504
20.5476,21540
20.5533,22729
20.559,22633
20.5648,23111
20.5705,22725
20.5762,21818
20.5819,21183
20.5876,23099
20.5934,22318
20.5991,22999
20.6048,21927
20.6105,22113
20.6163,21154
20.622,22439
20.6277,22316
20.6334,21545
20.6391,22800
20.6449,22597
20.6506,22117
20.6563,21520
20.662,21602
20.6678,22554
20.6735,22137
20.6792,22372
20.6849,22703
20.6906,21441
20.6964,22464
20.7021,21849
20.7078,21912
20.7135,22256
20.7192,22250
20.725,22822
20.7307,22143
20.7364,21208
20.7421,21832
20.7479,21957
20.7536,22428
20.7593,21900
20.765,22867
20.7707,20910
20.7765,22277
20.7822,21962
20.7879,22207
20.7936,22772
20.7994,21999
20.8051,21850
20.8108,22005
20.8165,22100
20.8222,21810
20.828,22731
20.8337,22624
20.8394,22118
20.8451,23517
20.8509,21889
20.8566,22453
20.8623,21634
20.868,22300
20.8737,22458
20.8795,22499
20.8852,21478
20.8909,22846
20.8966,22472
20.9024,23201
20.9081,22379
20.9138,22068
20.9195,22335
20.9252,22185
20.9309,22638
20.9367,21157
20.9424,21906
20.9481,21918
20.9538,22786
20.9596,22944
20.9653,22878
20.971,22448
20.9767,22254
20.9825,21902
20.9882,21689
20.9939,21109
20.9996,22444
21.0053,20926
21.0111,22529
21.0168,21856
21.0225,21626
21.0282,22358
21.034,22748
21.0397,22752
21.0454,22624
21.0511,22269
21.0568,21484
21.0626,21496
21.0683,22479
21.074,22690
21.0797,21804
21.0855,22070
21.0912,21368
21.0969,22774
21.1026,21894
21.1083,21720
21.1141,21803
21.1198,21630
21.1255,22542
21.1312,21570
21.137,22021
21.1427,20551
21.1484,21945
21.1541,22256
21.1598,22207
21.1656,23159
21.1713,22855
21.177,21964
21.1827,21678
21.1885,22584
21.1942,22296
21.1999,21797
21.2056,22116
21.2113,21548
21.2171,22128
21.2228,22500
21.2285,21960
21.2342,21264
21.2399,21909
21.2457,22258
21.2514,20454
21.2571,23128
21.2628,22257
21.2686,23339
21.2743,22572
21.28,22379
21.2857,21797
21.2914,22571
21.2972,23254
21.3029,22964
21.3086,22928
21.3143,23195
21.3201,21685
21.3258,22461
21.3315,21031
21.3372,22553
21.3429,21535
21.3487,21857
21.3544,22748
21.3601,22513
21.3658,22043
21.3716,22933
21.3773,21126
21.383,23333
21.3887,22422
21.3944,21796
21.4002,20951
21.4059,22068
21.4116,22896
21.4173,22258
21.4231,21970
21.4288,21254
21.4345,22646
21.4402,21207
21.4459,21635
21.4517,22087
21.4574,22209
21.4631,21385
21.4688,22221
21.4745,21925
21.4803,21991
21.486,21776
21.4917,21431
21.4974,22788
21.5032,22732
21.5089,22813
21.5146,21429
21.5203,23169
21.526,22967
21.5318,22434
21.5375,23134
21.5432,21969
21.5489,22519
21.5547,21866
21.5604,22093
21.5661,23522
21.5718,22429
21.5775,21451
21.5833,21372
21.589,22017
21.5947,21201
21.6004,22219
21.6062,23060
21.6119,22171
21.6176,22413
21.6233,21898
21.629,22125
21.6348,21491
21.6405,21408
21.6462,21592
21.6519,21581
21.6577,22456
21.6634,21682
21.6691,22681
21.6748,23530
21.6805,21619
21.6863,22879
21.692,22275
21.6977,22098
21.7034,21855
21.7091,22290
21.7149,23123
21.7206,21781
21.7263,22047
21.732,23066
21.7378,21740
21.7435,22853
21.7492,22393
21.7549,22454
21.7606,21827
21.7664,22622
21.7721,21881
21.7778,23460
21.7835,22268
21.7893,22750
21.795,22340
21.8007,22708
21.8064,21775
21.8121,22628
21.8179,21592
21.8236,22850
21.8293,22664
21.835,23009
21.8408,21912
21.8465,23059
21.8522,23037
21.8579,22027
21.8636,21968
21.8694,22473
21.8751,22580
21.8808,22816
21.8865,22125
21.8923,22939
21.898,21482
21.9037,22753
21.9094,21401
21.9151,22867
21.9209,22226
21.9266,21746
21.9323,21044
21.938,22014
21.9438,22228
21.9495,21974
21.9552,21821
21.9609,22256
21.9666,22572
21.9724,22038
21.9781,21748
21.9838,21490
21.9895,21923
21.9952,21856
22.001,22255
22.0067,21989
22.0124,22173
22.0181,21707
22.0238,21384
22.0296,21741
22.0353,21845
22.041,22769
22.0467,22196
22.0525,21812
22.0582,23264
22.0639,22327
22.0696,21937
22.0754,22564
22.0811,23015
22.0868,22883
22.0925,22790
22.0982,20557
22.104,22572
22.1097,21529
22.1154,22411
22.1211,22162
22.1269,22781
22.1326,22786
22.1383,22511
22.144,22365
22.1497,23419
22.1555,22184
22.1612,21912
22.1669,22292
22.1726,21478
22.1784,22101
22.1841,22203
22.1898,21670
22.1955,22073
22.2012,21997
22.207,22334
22.2127,21922
22.2184,22095
22.2241,22531
22.2298,22441
22.2356,21664
22.2413,21220
22.247,22062
22.2527,21080
22.2585,22548
22.2642,21997
22.2699,21462
22.2756,22799
22.2813,22663
22.2871,23359
22.2928,22285
22.2985,22679
22.3042,22693
22.31,21853
22.3157,20962
22.3214,22002
22.3271,22928
22.3328,22919
22.3386,22075
22.3443,22583
22.35,21504
22.3557,21687
22.3615,21882
22.3672,21259
22.3729,22211
22.3786,21390
22.3843,22302
22.3901,22658
22.3958,22267
22.4015,23211
22.4072,21797
22.413,22026
22.4187,22125
22.4244,22752
22.4301,21963
22.4358,21107
22.4415,21583
22.4473,22497
22.453,22101
22.4587,22340
22.4644,21471
22.4702,23241
22.4759,21377
22.4816,22060
22.4873,22085
22.4931,22531
