C:\MSDCHEM\1\DATA\SERINA\20170928 LACTONE_STD_CURVE\12.d 28 Sep 17   7:00 pm
Start of data points
5.09223,102826
5.09795,103313
5.10368,105952
5.1094,102017
5.11512,105988
5.12085,105881
5.12657,106769
5.13228,109608
5.13802,111124
5.14373,110195
5.14945,113920
5.15518,116947
5.1609,114171
5.16662,115220
5.17235,111999
5.17807,110506
5.18378,111053
5.18952,112057
5.19523,108147
5.20095,106145
5.20668,103615
5.2124,97989
5.21812,92333
5.22383,93956
5.22957,91096
5.23528,87333
5.241,85086
5.24673,82297
5.25245,80007
5.25817,78773
5.2639,77918
5.26962,76319
5.27533,71955
5.28107,72905
5.28678,68508
5.2925,69952
5.29823,66533
5.30395,66011
5.30967,65683
5.3154,62940
5.32112,63311
5.32683,62963
5.33257,63549
5.33828,62459
5.344,61787
5.34972,61043
5.35545,60095
5.36117,58139
5.36688,59864
5.37262,59190
5.37833,57904
5.38405,60453
5.38978,57779
5.3955,55305
5.40122,59063
5.40695,55349
5.41267,57669
5.41838,56673
5.42412,54858
5.42983,55616
5.43555,56283
5.44128,56583
5.447,54040
5.45272,53885
5.45845,55039
5.46417,54321
5.46988,54263
5.4756,53371
5.48133,54143
5.48705,54519
5.49277,52250
5.4985,51296
5.50422,53078
5.50993,51407
5.51567,51851
5.52138,50012
5.5271,52714
5.53283,50748
5.53855,51430
5.54427,52013
5.55,51867
5.55572,50702
5.56143,51620
5.56717,51047
5.57288,50807
5.5786,50034
5.58433,48596
5.59005,47954
5.59577,50019
5.60148,51423
5.60722,50342
5.61293,46797
5.61865,48954
5.62438,47980
5.6301,47261
5.63582,47926
5.64155,48919
5.64727,48328
5.65298,48589
5.65872,49679
5.66443,47515
5.67015,47652
5.67588,46589
5.6816,45271
5.68732,44153
5.69305,45877
5.69877,47723
5.70448,46202
5.71022,48047
5.71593,45270
5.72165,48164
5.72737,46733
5.7331,44346
5.73882,44868
5.74453,44610
5.75027,44995
5.75598,45814
5.7617,45402
5.76743,43397
5.77315,45628
5.77887,43796
5.7846,46012
5.79032,44468
5.79603,42642
5.80177,46406
5.80748,47580
5.8132,43761
5.81893,47577
5.82465,47461
5.83037,47420
5.8361,46468
5.84182,47196
5.84753,45782
5.85325,43495
5.85898,45720
5.8647,46239
5.87042,44886
5.87615,43339
5.88187,43753
5.88758,43102
5.89332,43432
5.89903,41085
5.90475,42796
5.91048,42208
5.9162,42559
5.92192,40328
5.92765,41156
5.93337,40043
5.93908,40519
5.94482,42095
5.95053,43093
5.95625,39759
5.96198,41625
5.9677,38675
5.97342,40917
5.97913,41502
5.98487,41130
5.99058,40486
5.9963,42815
6.00203,42266
6.00775,42407
6.01347,42957
6.0192,42202
6.02492,40037
6.03063,42275
6.03637,40981
6.04208,41039
6.0478,40226
6.05353,41355
6.05925,40750
6.06497,39073
6.0707,38151
6.07642,41118
6.08213,39775
6.08787,39452
6.09358,38794
6.0993,41230
6.10502,38277
6.11075,38349
6.11647,40548
6.12218,38969
6.12792,39310
6.13363,41568
6.13935,38517
6.14508,40217
6.1508,39053
6.15652,36533
6.16225,37802
6.16797,37281
6.17368,38880
6.17942,38179
6.18513,37737
6.19085,39471
6.19658,38247
6.2023,38465
6.20802,38178
6.21375,37470
6.21947,37251
6.22518,36926
6.2309,37010
6.23663,37974
6.24235,35122
6.24807,36157
6.2538,36669
6.25952,36617
6.26523,35400
6.27097,37863
6.27668,37122
6.2824,37386
6.28813,38268
6.29385,38553
6.29957,38855
6.3053,37528
6.31102,38108
6.31673,38698
6.32247,37284
6.32818,36759
6.3339,36009
6.33963,35888
6.34535,37999
6.35107,35426
6.35678,35547
6.36252,37311
6.36823,35538
6.37395,36949
6.37968,38746
6.3854,35393
6.39112,35168
6.39685,36551
6.40257,34063
6.40828,34830
6.41402,34576
6.41973,34486
6.42545,34862
6.43118,35255
6.4369,36251
6.44262,37025
6.44835,35314
6.45407,35998
6.45978,34922
6.46552,34691
6.47123,34144
6.47695,34149
6.48267,35383
6.4884,33843
6.49412,34848
6.49983,34895
6.50557,34721
6.51128,36703
6.517,35377
6.52273,34179
6.52845,34834
6.53417,35000
6.5399,36103
6.54562,33496
6.55133,35400
6.55707,34551
6.56278,35556
6.5685,35428
6.57423,34182
6.57995,34325
6.58567,35457
6.5914,33652
6.59712,34475
6.60283,34719
6.60855,33716
6.61428,32587
6.62,34151
6.62572,33930
6.63145,33613
6.63717,33986
6.64288,34022
6.64862,33388
6.65433,34118
6.66005,34738
6.66578,34026
6.6715,36110
6.67722,34290
6.68295,34286
6.68867,34954
6.69438,34258
6.70012,33701
6.70583,35064
6.71155,34585
6.71728,35205
6.723,34055
6.72872,34232
6.73443,34139
6.74017,33560
6.74588,31933
6.7516,34726
6.75733,33700
6.76305,33645
6.76877,34211
6.7745,34668
6.78022,32726
6.78593,33328
6.79167,32277
6.79738,34195
6.8031,32071
6.80883,33973
6.81455,32849
6.82027,34868
6.826,33489
6.83172,32460
6.83743,31962
6.84317,33494
6.84888,33688
6.8546,33296
6.86032,31659
6.86605,31999
6.87177,31499
6.87748,31988
6.88322,31792
6.88893,32730
6.89465,33069
6.90038,33024
6.9061,30997
6.91182,32338
6.91755,32105
6.92327,33083
6.92898,31723
6.93472,31900
6.94043,30515
6.94615,32259
6.95188,32494
6.9576,31370
6.96332,31796
6.96905,32610
6.97477,31063
6.98048,30769
6.9862,33506
6.99193,32089
6.99765,32244
7.00337,30054
7.0091,31390
7.01482,32493
7.02053,31572
7.02627,32185
7.03198,31880
7.0377,32350
7.04343,33217
7.04915,30933
7.05487,32689
7.0606,32733
7.06632,33482
7.07203,29060
7.07777,32022
7.08348,31013
7.0892,31307
7.09493,32168
7.10065,30927
7.10637,31858
7.1121,33772
7.11782,31035
7.12353,31007
7.12925,31533
7.13498,29807
7.1407,31312
7.14642,32660
7.15215,30675
7.15787,32636
7.16358,32605
7.16932,31395
7.17503,31499
7.18075,31200
7.18648,30239
7.1922,31890
7.19792,31601
7.20365,31602
7.20937,30848
7.21508,29828
7.22082,32114
7.22653,31592
7.23225,31329
7.23798,30839
7.2437,29583
7.24942,31054
7.25513,31448
7.26087,29475
7.26658,30059
7.2723,29828
7.27803,30526
7.28375,30501
7.28947,30156
7.2952,30979
7.30092,29774
7.30663,31476
7.31237,29336
7.31808,30632
7.3238,29763
7.32953,28620
7.33525,30720
7.34097,31116
7.3467,31280
7.35242,31611
7.35813,31798
7.36387,30824
7.36958,32455
7.3753,32741
7.38102,30226
7.38675,30864
7.39247,30911
7.39818,31105
7.40392,30138
7.40963,32201
7.41535,32900
7.42108,31343
7.4268,29699
7.43252,29306
7.43825,29853
7.44397,32313
7.44968,30582
7.45542,30402
7.46113,30478
7.46685,32637
7.47258,31882
7.4783,31680
7.48402,29629
7.48975,29773
7.49547,30369
7.50118,29475
7.5069,29620
7.51263,30171
7.51835,30102
7.52407,31375
7.5298,30745
7.53552,30315
7.54123,30776
7.54697,30724
7.55268,30738
7.5584,28668
7.56413,29674
7.56985,32250
7.57557,33095
7.5813,33539
7.58702,35438
7.59273,36133
7.59847,34783
7.60418,30688
7.6099,31826
7.61563,31655
7.62135,29451
7.62707,29705
7.63278,30392
7.63852,30432
7.64423,29847
7.64995,31131
7.65568,29558
7.6614,31716
7.66712,32065
7.67285,30780
7.67857,30183
7.68428,31779
7.69002,32466
7.69573,28985
7.70145,30310
7.70718,28969
7.7129,31268
7.71862,30656
7.72435,29085
7.73007,29814
7.73578,30380
7.74152,27359
7.74723,30207
7.75295,29340
7.75867,28731
7.7644,29335
7.77012,30293
7.77583,31759
7.78157,31843
7.78728,28811
7.793,28544
7.79873,27750
7.80445,29792
7.81017,29233
7.8159,29690
7.82162,29528
7.82733,27001
7.83307,29285
7.83878,30600
7.8445,30831
7.85023,31106
7.85595,29574
7.86167,29796
7.8674,30291
7.87312,29115
7.87883,29175
7.88455,29262
7.89028,29514
7.896,28951
7.90172,29327
7.90745,29317
7.91317,29189
7.91888,30680
7.92462,31471
7.93033,32426
7.93605,33900
7.94178,30463
7.9475,30918
7.95322,31478
7.95895,30722
7.96467,29945
7.97038,30211
7.97612,29691
7.98183,28455
7.98755,29683
7.99328,28561
7.999,29702
8.00472,30125
8.01043,29008
8.01617,27812
8.02188,27467
8.0276,29673
8.03333,31367
8.03905,30489
8.04477,30295
8.0505,29573
8.05622,30479
8.06193,31519
8.06767,29069
8.07338,28556
8.0791,29459
8.08483,29981
8.09055,30052
8.09627,28744
8.102,29988
8.10772,29014
8.11343,28996
8.11917,30318
8.12488,30209
8.1306,29511
8.13632,29116
8.14205,28020
8.14777,29510
8.15348,31455
8.15922,29345
8.16493,28343
8.17065,28436
8.17638,30001
8.1821,28558
8.18782,28732
8.19355,30073
8.19927,30800
8.20498,30360
8.21072,29247
8.21643,30655
8.22215,28828
8.22788,27013
8.2336,28954
8.23932,30328
8.24505,28385
8.25077,29801
8.25648,29425
8.2622,29415
8.26793,27913
8.27365,27880
8.27937,27518
8.2851,29339
8.29082,27837
8.29653,28710
8.30227,28248
8.30798,28862
8.3137,29641
8.31943,28942
8.32515,31222
8.33087,30226
8.3366,29373
8.34232,28697
8.34803,28527
8.35377,28904
8.35948,27308
8.3652,29477
8.37093,27528
8.37665,27494
8.38237,28121
8.38808,28493
8.39382,29729
8.39953,30723
8.40525,28162
8.41098,28840
8.4167,27785
8.42242,27033
8.42815,29257
8.43387,27621
8.43958,27243
8.44532,28406
8.45103,29280
8.45675,28317
8.46248,26702
8.4682,28768
8.47392,27836
8.47965,27062
8.48537,26532
8.49108,28295
8.49682,26365
8.50253,28134
8.50825,28899
8.51397,29032
8.5197,29403
8.52542,28405
8.53113,27321
8.53687,28015
8.54258,29416
8.5483,26105
8.55403,29120
8.55975,28974
8.56547,28544
8.5712,27112
8.57692,25765
8.58263,27970
8.58837,28387
8.59408,27436
8.5998,28415
8.60553,27745
8.61125,27053
8.61697,27175
8.6227,28341
8.62842,28923
8.63413,29337
8.63985,28420
8.64558,27726
8.6513,28548
8.65702,27995
8.66275,28768
8.66847,28392
8.67418,28411
8.67992,29361
8.68563,28412
8.69135,28450
8.69708,29536
8.7028,26718
8.70852,27040
8.71425,26265
8.71997,26685
8.72568,27200
8.73142,27419
8.73713,27254
8.74285,27672
8.74858,28693
8.7543,27374
8.76002,27406
8.76573,25942
8.77147,27268
8.77718,26569
8.7829,28054
8.78863,27469
8.79435,29213
8.80007,27609
8.8058,29810
8.81152,29417
8.81723,30036
8.82297,28595
8.82868,27177
8.8344,27661
8.84013,27354
8.84585,28415
8.85157,27099
8.8573,27688
8.86302,27193
8.86873,28703
8.87447,27377
8.88018,27405
8.8859,28422
8.89162,25868
8.89735,26083
8.90307,26816
8.90878,27299
8.91452,27127
8.92023,27750
8.92595,27730
8.93168,28621
8.9374,26589
8.94312,29275
8.94885,27383
8.95457,27410
8.96028,27949
8.96602,28666
8.97173,27652
8.97745,29814
8.98318,31081
8.9889,32032
8.99462,30212
9.00035,31039
9.00607,29073
9.01178,27563
9.0175,28661
9.02323,28925
9.02895,27964
9.03467,28547
9.0404,28516
9.04612,27998
9.05183,26643
9.05757,27578
9.06328,27733
9.069,27679
9.07473,29671
9.08045,30304
9.08617,28868
9.0919,25046
9.09762,29698
9.10333,27606
9.10907,29016
9.11478,29318
9.1205,28619
9.12623,31002
9.13195,46137
9.13767,102461
9.14338,239504
9.14912,444015
9.15483,630518
9.16055,622553
9.16628,401595
9.172,191977
9.17772,73772
9.18345,40146
9.18917,39521
9.19488,46485
9.20062,54260
9.20633,54822
9.21205,47789
9.21778,42433
9.2235,33662
9.22922,29772
9.23495,28249
9.24067,30244
9.24638,32062
9.25212,28977
9.25783,29255
9.26355,29025
9.26927,29243
9.275,27436
9.28072,27619
9.28643,28475
9.29217,29562
9.29788,29379
9.3036,29399
9.30933,29493
9.31505,26905
9.32077,25974
9.3265,26791
9.33222,27645
9.33793,28232
9.34367,28639
9.34938,28455
9.3551,30782
9.36083,33590
9.36655,37437
9.37227,40931
9.378,40848
9.38372,36911
9.38943,33984
9.39515,30234
9.40088,28415
9.4066,28470
9.41232,27641
9.41805,27046
9.42377,28587
9.42948,30283
9.43522,28760
9.44093,29021
9.44665,26973
9.45238,28685
9.4581,29469
9.46382,29009
9.46955,26726
9.47527,29684
9.48098,26817
9.48672,29074
9.49243,28000
9.49815,26518
9.50388,29620
9.5096,27658
9.51532,28180
9.52103,28547
9.52677,30281
9.53248,29406
9.5382,29359
9.54393,29762
9.54965,31431
9.55537,29466
9.5611,29878
9.56682,31871
9.57253,29886
9.57827,31820
9.58398,31373
9.5897,28837
9.59543,30705
9.60115,32198
9.60687,31614
9.6126,28062
9.61832,29212
9.62403,31974
9.62977,29560
9.63548,30156
9.6412,29613
9.64692,31358
9.65265,30151
9.65837,29522
9.66408,30764
9.66982,31783
9.67553,28993
9.68125,30265
9.68698,31660
9.6927,35366
9.69842,40378
9.70415,48950
9.70987,57782
9.71558,59558
9.72132,55629
9.72703,53186
9.73275,53394
9.73848,51633
9.7442,52753
9.74992,57254
9.75565,56655
9.76137,57816
9.76708,55066
9.7728,51961
9.77853,54210
9.78425,51021
9.78997,46939
9.7957,44833
9.80142,47266
9.80713,44949
9.81287,42506
9.81858,41392
9.8243,41330
9.83003,38631
9.83575,38934
9.84147,39138
9.8472,38710
9.85292,36262
9.85863,40172
9.86437,35453
9.87008,37147
9.8758,37196
9.88153,35307
9.88725,35337
9.89297,35556
9.89868,36905
9.90442,36200
9.91013,34845
9.91585,36437
9.92158,36657
9.9273,33219
9.93302,36082
9.93875,35209
9.94447,33271
9.95018,34196
9.95592,34457
9.96163,34309
9.96735,37085
9.97308,33620
9.9788,32806
9.98452,36703
9.99025,36911
9.99597,35833
10.0017,35612
10.0074,33673
10.0131,35611
10.0189,35963
10.0246,34969
10.0303,35294
10.036,33338
10.0417,34165
10.0475,32888
10.0532,34315
10.0589,34104
10.0646,32479
10.0704,33308
10.0761,33581
10.0818,33646
10.0875,34143
10.0932,34582
10.099,33677
10.1047,33722
10.1104,32010
10.1161,33184
10.1219,31957
10.1276,32544
10.1333,31347
10.139,33926
10.1447,31761
10.1505,32575
10.1562,31831
10.1619,32258
10.1676,33557
10.1734,33113
10.1791,33225
10.1848,31850
10.1905,29831
10.1962,32689
10.202,32587
10.2077,31808
10.2134,31177
10.2191,31932
10.2249,30546
10.2306,32334
10.2363,31630
10.242,32391
10.2477,33632
10.2535,35518
10.2592,35067
10.2649,33840
10.2706,34086
10.2763,30549
10.2821,31078
10.2878,31176
10.2935,30748
10.2992,32839
10.305,30464
10.3107,31167
10.3164,31059
10.3221,30953
10.3278,31442
10.3336,30721
10.3393,30531
10.345,30712
10.3507,30023
10.3565,31595
10.3622,32432
10.3679,30563
10.3736,30764
10.3793,31334
10.3851,32185
10.3908,30821
10.3965,32390
10.4022,33577
10.408,29407
10.4137,28214
10.4194,31723
10.4251,31680
10.4308,29674
10.4366,33802
10.4423,29555
10.448,30928
10.4537,30647
10.4595,30152
10.4652,32109
10.4709,30191
10.4766,30833
10.4823,30075
10.4881,29242
10.4938,30146
10.4995,29192
10.5052,30716
10.511,28851
10.5167,31612
10.5224,30339
10.5281,29258
10.5338,30313
10.5396,30595
10.5453,30505
10.551,31393
10.5567,30659
10.5624,30894
10.5682,31150
10.5739,32638
10.5796,28301
10.5853,30951
10.5911,30843
10.5968,30554
10.6025,32366
10.6082,33948
10.6139,34498
10.6197,35051
10.6254,39098
10.6311,46526
10.6368,50323
10.6426,53917
10.6483,47032
10.654,37740
10.6597,32071
10.6654,30179
10.6712,30790
10.6769,31138
10.6826,29524
10.6883,31538
10.6941,31560
10.6998,30927
10.7055,30389
10.7112,32279
10.7169,30324
10.7227,31119
10.7284,30014
10.7341,29815
10.7398,31355
10.7456,29057
10.7513,28605
10.757,28812
10.7627,29523
10.7684,30393
10.7742,29213
10.7799,29465
10.7856,28631
10.7913,28280
10.797,27226
10.8028,30142
10.8085,31550
10.8142,31858
10.8199,31029
10.8257,31628
10.8314,30163
10.8371,29944
10.8428,29918
10.8485,30577
10.8543,29091
10.86,28237
10.8657,28629
10.8714,27951
10.8772,27465
10.8829,27337
10.8886,27927
10.8943,29108
10.9,29447
10.9058,29149
10.9115,30896
10.9172,28778
10.9229,28630
10.9287,29771
10.9344,30122
10.9401,29399
10.9458,28955
10.9515,29172
10.9573,28288
10.963,30295
10.9687,30822
10.9744,29679
10.9802,29284
10.9859,29485
10.9916,29740
10.9973,30467
11.003,32533
11.0088,31394
11.0145,30067
11.0202,30851
11.0259,29071
11.0316,31468
11.0374,30481
11.0431,31942
11.0488,34098
11.0545,35104
11.0603,39149
11.066,38100
11.0717,42180
11.0774,48748
11.0831,50593
11.0889,55170
11.0946,58436
11.1003,61826
11.106,64532
11.1118,65923
11.1175,67689
11.1232,66178
11.1289,66286
11.1346,64185
11.1404,62859
11.1461,60944
11.1518,61196
11.1575,57356
11.1633,56361
11.169,54805
11.1747,52699
11.1804,52697
11.1861,50811
11.1919,50015
11.1976,46523
11.2033,48340
11.209,47130
11.2148,46814
11.2205,47634
11.2262,46659
11.2319,44909
11.2376,44840
11.2434,46618
11.2491,44535
11.2548,45130
11.2605,45372
11.2663,47901
11.272,47316
11.2777,47378
11.2834,48221
11.2891,46209
11.2949,48226
11.3006,46209
11.3063,46235
11.312,46348
11.3177,42853
11.3235,42337
11.3292,40646
11.3349,40623
11.3406,39626
11.3464,39687
11.3521,38082
11.3578,39179
11.3635,37381
11.3692,36763
11.375,38537
11.3807,39330
11.3864,37597
11.3921,36293
11.3979,37116
11.4036,34197
11.4093,35835
11.415,38069
11.4207,36743
11.4265,38991
11.4322,38693
11.4379,39100
11.4436,37902
11.4494,33505
11.4551,34165
11.4608,33004
11.4665,33971
11.4722,33061
11.478,33451
11.4837,33745
11.4894,34130
11.4951,32980
11.5009,31574
11.5066,33708
11.5123,33100
11.518,32088
11.5237,33128
11.5295,32970
11.5352,31294
11.5409,30109
11.5466,31007
11.5523,31817
11.5581,33412
11.5638,31880
11.5695,31200
11.5752,31500
11.581,31987
11.5867,32774
11.5924,30676
11.5981,31228
11.6038,31187
11.6096,30778
11.6153,31534
11.621,31544
11.6267,30607
11.6325,31557
11.6382,30106
11.6439,28985
11.6496,30175
11.6553,30483
11.6611,31130
11.6668,31739
11.6725,30804
11.6782,29346
11.684,30735
11.6897,31218
11.6954,31454
11.7011,31774
11.7068,32293
11.7126,29149
11.7183,30786
11.724,29426
11.7297,31864
11.7355,29118
11.7412,31277
11.7469,32769
11.7526,30841
11.7583,30998
11.7641,30337
11.7698,29918
11.7755,30559
11.7812,30320
11.787,30188
11.7927,30280
11.7984,29917
11.8041,31358
11.8098,31372
11.8156,32576
11.8213,29573
11.827,32362
11.8327,32919
11.8384,31589
11.8442,30770
11.8499,29351
11.8556,30101
11.8613,29951
11.8671,30338
11.8728,30184
11.8785,33219
11.8842,35962
11.8899,36935
11.8957,33507
11.9014,33524
11.9071,31464
11.9128,30730
11.9186,29726
11.9243,31401
11.93,32920
11.9357,29179
11.9414,32721
11.9472,30918
11.9529,31690
11.9586,32024
11.9643,31084
11.9701,31370
11.9758,31941
11.9815,31783
11.9872,31530
11.9929,31369
11.9987,30415
12.0044,30935
12.0101,32485
12.0158,30999
12.0216,31905
12.0273,29793
12.033,31433
12.0387,30139
12.0444,31768
12.0502,30446
12.0559,31177
12.0616,31322
12.0673,31172
12.073,32306
12.0788,32382
12.0845,34408
12.0902,33491
12.0959,33262
12.1017,34241
12.1074,33685
12.1131,32977
12.1188,33434
12.1245,31425
12.1303,30760
12.136,30194
12.1417,31666
12.1474,32935
12.1532,31528
12.1589,32248
12.1646,30464
12.1703,32504
12.176,31547
12.1818,31816
12.1875,30309
12.1932,31357
12.1989,28921
12.2047,30360
12.2104,29271
12.2161,30831
12.2218,31015
12.2275,30519
12.2333,29872
12.239,32227
12.2447,28339
12.2504,29711
12.2562,31226
12.2619,29835
12.2676,30306
12.2733,29057
12.279,28646
12.2848,29427
12.2905,29766
12.2962,28594
12.3019,30262
12.3076,30825
12.3134,29943
12.3191,28872
12.3248,29890
12.3305,29077
12.3363,30558
12.342,28656
12.3477,27617
12.3534,29228
12.3591,27558
12.3649,28730
12.3706,30038
12.3763,31465
12.382,30249
12.3878,27991
12.3935,29111
12.3992,29712
12.4049,30229
12.4106,30045
12.4164,28625
12.4221,29615
12.4278,29690
12.4335,31373
12.4393,29875
12.445,29618
12.4507,29472
12.4564,32388
12.4621,29827
12.4679,29173
12.4736,29980
12.4793,30360
12.485,31133
12.4908,34975
12.4965,33612
12.5022,31194
12.5079,30906
12.5136,30122
12.5194,29738
12.5251,29471
12.5308,31705
12.5365,31106
12.5423,30487
12.548,29713
12.5537,29622
12.5594,28425
12.5651,26967
12.5709,28927
12.5766,29577
12.5823,30258
12.588,30547
12.5937,30046
12.5995,29339
12.6052,30212
12.6109,31569
12.6166,29524
12.6224,30187
12.6281,31454
12.6338,31245
12.6395,29743
12.6452,30246
12.651,33178
12.6567,34371
12.6624,37400
12.6681,36859
12.6739,32047
12.6796,32405
12.6853,31452
12.691,30004
12.6967,31170
12.7025,30768
12.7082,30644
12.7139,30630
12.7196,32153
12.7254,31387
12.7311,32308
12.7368,29040
12.7425,29118
12.7482,29166
12.754,29761
12.7597,30386
12.7654,32046
12.7711,29844
12.7769,31045
12.7826,30579
12.7883,29330
12.794,33757
12.7997,32234
12.8055,29708
12.8112,30285
12.8169,33179
12.8226,33960
12.8283,33535
12.8341,35777
12.8398,35056
12.8455,31827
12.8512,31609
12.857,31210
12.8627,31078
12.8684,29603
12.8741,33028
12.8798,32238
12.8856,31443
12.8913,31175
12.897,30974
12.9027,30947
12.9085,31722
12.9142,32718
12.9199,32695
12.9256,31754
12.9313,33291
12.9371,30994
12.9428,30636
12.9485,30318
12.9542,28860
12.96,33245
12.9657,31625
12.9714,31888
12.9771,32279
12.9828,33213
12.9886,30567
12.9943,30663
13,30965
13.0057,31970
13.0115,31200
13.0172,34120
13.0229,31341
13.0286,33062
13.0343,32074
13.0401,33212
13.0458,32284
13.0515,31772
13.0572,32356
13.0629,33563
13.0687,33788
13.0744,35145
13.0801,32155
13.0858,31929
13.0916,31708
13.0973,31696
13.103,33835
13.1087,33116
13.1144,32335
13.1202,32116
13.1259,33211
13.1316,32280
13.1373,31300
13.1431,31488
13.1488,33440
13.1545,32821
13.1602,33474
13.1659,34294
13.1717,38660
13.1774,41129
13.1831,40860
13.1888,37942
13.1946,36791
13.2003,36930
13.206,35696
13.2117,35410
13.2174,34655
13.2232,35035
13.2289,34918
13.2346,35419
13.2403,34166
13.2461,35865
13.2518,37030
13.2575,36293
13.2632,35020
13.2689,35727
13.2747,34936
13.2804,35303
13.2861,35332
13.2918,36757
13.2976,36923
13.3033,37065
13.309,37435
13.3147,37729
13.3204,38386
13.3262,35306
13.3319,36508
13.3376,37972
13.3433,37787
13.349,40467
13.3548,38444
13.3605,38204
13.3662,37040
13.3719,37847
13.3777,39606
13.3834,37825
13.3891,39597
13.3948,41259
13.4005,40331
13.4063,39523
13.412,37162
13.4177,40600
13.4234,41268
13.4292,39878
13.4349,41058
13.4406,41582
13.4463,41676
13.452,40955
13.4578,42933
13.4635,41074
13.4692,41215
13.4749,41597
13.4807,44580
13.4864,45048
13.4921,42528
13.4978,44927
13.5035,41722
13.5093,41297
13.515,41627
13.5207,43987
13.5264,42915
13.5322,42032
13.5379,42668
13.5436,42940
13.5493,42598
13.555,43559
13.5608,44043
13.5665,42272
13.5722,44935
13.5779,44373
13.5836,44321
13.5894,43269
13.5951,43138
13.6008,44364
13.6065,43928
13.6123,43057
13.618,43328
13.6237,42007
13.6294,46353
13.6351,43140
13.6409,46199
13.6466,44531
13.6523,44782
13.658,46560
13.6638,44347
13.6695,46931
13.6752,46642
13.6809,46417
13.6866,46571
13.6924,46050
13.6981,45645
13.7038,45344
13.7095,46745
13.7153,45948
13.721,47633
13.7267,50245
13.7324,47839
13.7381,48764
13.7439,49299
13.7496,47187
13.7553,49253
13.761,49534
13.7668,54058
13.7725,56507
13.7782,57719
13.7839,54802
13.7896,55187
13.7954,53307
13.8011,53355
13.8068,51454
13.8125,49951
13.8182,49738
13.824,52715
13.8297,53406
13.8354,51824
13.8411,54273
13.8469,53660
13.8526,53426
13.8583,52929
13.864,64128
13.8697,60212
13.8755,64122
13.8812,62415
13.8869,60348
13.8926,60464
13.8984,59715
13.9041,60212
13.9098,59278
13.9155,59811
13.9212,56906
13.927,56335
13.9327,59156
13.9384,56796
13.9441,55209
13.9499,56117
13.9556,58544
13.9613,58494
13.967,60037
13.9727,61263
13.9785,61685
13.9842,61117
13.9899,62236
13.9956,58431
14.0014,61706
14.0071,61253
14.0128,61703
14.0185,58604
14.0242,60296
14.03,61121
14.0357,59471
14.0414,61263
14.0471,62265
14.0529,61799
14.0586,64134
14.0643,61381
14.07,61987
14.0757,63675
14.0815,64718
14.0872,67275
14.0929,71171
14.0986,69555
14.1043,69514
14.1101,69316
14.1158,68669
14.1215,63524
14.1272,66295
14.133,67635
14.1387,66533
14.1444,64823
14.1501,64280
14.1558,65513
14.1616,65510
14.1673,68033
14.173,66952
14.1787,67340
14.1845,69546
14.1902,69638
14.1959,70461
14.2016,68066
14.2073,68637
14.2131,68436
14.2188,67857
14.2245,67878
14.2302,69957
14.236,67480
14.2417,68382
14.2474,71089
14.2531,67079
14.2588,70352
14.2646,70468
14.2703,70988
14.276,71625
14.2817,70397
14.2875,70148
14.2932,73149
14.2989,74354
14.3046,73511
14.3103,71895
14.3161,70622
14.3218,74376
14.3275,73237
14.3332,73896
14.3389,73340
14.3447,73233
14.3504,73845
14.3561,71348
14.3618,73897
14.3676,74391
14.3733,73358
14.379,71791
14.3847,75308
14.3904,77168
14.3962,78273
14.4019,78766
14.4076,79466
14.4133,81090
14.4191,78639
14.4248,78594
14.4305,79609
14.4362,78675
14.4419,74594
14.4477,79164
14.4534,78434
14.4591,82350
14.4648,79095
14.4706,82754
14.4763,82741
14.482,79753
14.4877,79235
14.4934,85013
14.4992,81102
14.5049,83749
14.5106,85114
14.5163,82487
14.5221,84751
14.5278,83964
14.5335,85943
14.5392,83828
14.5449,88029
14.5507,86237
14.5564,84602
14.5621,87478
14.5678,88546
14.5735,86414
14.5793,86686
14.585,89000
14.5907,90509
14.5964,89249
14.6022,86565
14.6079,88590
14.6136,93654
14.6193,91640
14.625,90059
14.6308,90205
14.6365,89739
14.6422,89838
14.6479,94230
14.6537,89419
14.6594,93196
14.6651,93886
14.6708,97288
14.6765,92785
14.6823,94968
14.688,94788
14.6937,94381
14.6994,94630
14.7052,94943
14.7109,91565
14.7166,94626
14.7223,94533
14.728,93893
14.7338,96176
14.7395,98083
14.7452,99765
14.7509,98848
14.7567,98074
14.7624,95714
14.7681,96559
14.7738,99441
14.7795,100775
14.7853,97756
14.791,100521
14.7967,101453
14.8024,99156
14.8082,100351
14.8139,104415
14.8196,103037
14.8253,102899
14.831,104105
14.8368,103717
14.8425,103393
14.8482,101030
14.8539,104043
14.8596,104297
14.8654,105592
14.8711,106790
14.8768,104608
14.8825,106428
14.8883,104603
14.894,102265
14.8997,106494
14.9054,106319
14.9111,109901
14.9169,110185
14.9226,106408
14.9283,111140
14.934,110618
14.9398,108502
14.9455,109586
14.9512,110816
14.9569,113750
14.9626,110155
14.9684,114198
14.9741,110974
14.9798,113015
14.9855,115555
14.9913,115905
14.997,117161
15.0027,117434
15.0084,115036
15.0141,117413
15.0199,117714
15.0256,120924
15.0313,117514
15.037,117846
15.0428,119359
15.0485,118898
15.0542,119904
15.0599,118469
15.0656,121919
15.0714,124066
15.0771,121454
15.0828,120630
15.0885,121266
15.0942,122879
15.1,123679
15.1057,123013
15.1114,127154
15.1171,125351
15.1229,127254
15.1286,127276
15.1343,125966
15.14,126054
15.1457,128266
15.1515,128147
15.1572,130478
15.1629,130442
15.1686,131821
15.1744,132855
15.1801,130566
15.1858,129124
15.1915,129314
15.1972,128299
15.203,133901
15.2087,134517
15.2144,135500
15.2201,136948
15.2259,133590
15.2316,135116
15.2373,137306
15.243,140894
15.2487,137981
15.2545,139679
15.2602,140916
15.2659,143370
15.2716,149051
15.2774,155758
15.2831,157117
15.2888,153822
15.2945,150601
15.3002,153431
15.306,148983
15.3117,149535
15.3174,148031
15.3231,147510
15.3288,146410
15.3346,150016
15.3403,148967
15.346,146331
15.3517,149972
15.3575,147677
15.3632,147910
15.3689,151753
15.3746,149419
15.3803,155286
15.3861,157003
15.3918,152819
15.3975,153443
15.4032,154099
15.409,156900
15.4147,154339
15.4204,156400
15.4261,156105
15.4318,155509
15.4376,159775
15.4433,159693
15.449,158002
15.4547,159440
15.4605,159500
15.4662,163328
15.4719,164635
15.4776,160346
15.4833,165240
15.4891,162908
15.4948,159654
15.5005,166696
15.5062,164681
15.512,170487
15.5177,171539
15.5234,171680
15.5291,168939
15.5348,167406
15.5406,167960
15.5463,168962
15.552,170660
15.5577,169040
15.5635,168917
15.5692,177007
15.5749,171008
15.5806,173381
15.5863,172668
15.5921,176781
15.5978,173651
15.6035,178256
15.6092,176195
15.6149,177397
15.6207,178792
15.6264,181279
15.6321,180350
15.6378,183813
15.6436,184817
15.6493,184299
15.655,184628
15.6607,183388
15.6664,183945
15.6722,180065
15.6779,183234
15.6836,181094
15.6893,186079
15.6951,185543
15.7008,189458
15.7065,189123
15.7122,193816
15.7179,190663
15.7237,191035
15.7294,192082
15.7351,197413
15.7408,199540
15.7466,194548
15.7523,197185
15.758,199863
15.7637,203317
15.7694,198006
15.7752,197450
15.7809,201529
15.7866,197289
15.7923,200978
15.7981,205618
15.8038,203068
15.8095,204946
15.8152,206785
15.8209,213028
15.8267,210894
15.8324,211672
15.8381,212371
15.8438,212271
15.8495,214807
15.8553,212883
15.861,212895
15.8667,213646
15.8724,220569
15.8782,216494
15.8839,214538
15.8896,214618
15.8953,217104
15.901,218909
15.9068,221514
15.9125,222790
15.9182,227888
15.9239,230607
15.9297,224787
15.9354,223323
15.9411,225223
15.9468,221907
15.9525,224445
15.9583,225204
15.964,228073
15.9697,233808
15.9754,229269
15.9812,233869
15.9869,232158
15.9926,232544
15.9983,236095
16.004,237952
16.0098,234905
16.0155,239880
16.0212,238084
16.0269,232643
16.0327,240058
16.0384,242171
16.0441,241200
16.0498,242982
16.0555,243462
16.0613,244053
16.067,246412
16.0727,251321
16.0784,248822
16.0842,246799
16.0899,252051
16.0956,252803
16.1013,254668
16.107,251536
16.1127,258617
16.1185,256536
16.1242,259135
16.1299,258539
16.1356,259764
16.1414,256430
16.1471,256044
16.1528,260720
16.1585,262795
16.1642,259568
16.17,262704
16.1757,260455
16.1814,261021
16.1871,264920
16.1929,268655
16.1986,261766
16.2043,266771
16.21,272348
16.2158,267975
16.2215,265962
16.2272,266164
16.2329,272576
16.2386,273105
16.2444,265997
16.2501,270213
16.2558,274039
16.2615,278958
16.2673,274870
16.273,275592
16.2787,275321
16.2844,279391
16.2901,279971
16.2959,278475
16.3016,282374
16.3073,284843
16.313,285948
16.3188,286695
16.3245,284542
16.3302,291895
16.3359,286657
16.3416,296675
16.3473,298489
16.3531,295434
16.3588,292864
16.3645,292328
16.3702,293919
16.376,301754
16.3817,301510
16.3874,311510
16.3931,316814
16.3988,307985
16.4046,308340
16.4103,306069
16.416,307892
16.4217,315477
16.4275,308778
16.4332,311955
16.4389,312468
16.4446,314611
16.4504,314791
16.4561,318658
16.4618,321634
16.4675,323929
16.4732,317756
16.479,324419
16.4847,321534
16.4904,320568
16.4961,320426
16.5019,324625
16.5076,327242
16.5133,318942
16.519,326066
16.5247,327710
16.5304,329784
16.5362,327344
16.5419,327297
16.5476,333797
16.5533,332035
16.5591,334059
16.5648,327642
16.5705,324540
16.5762,329331
16.5819,327732
16.5877,335847
16.5934,335484
16.5991,338784
16.6048,342487
16.6106,340567
16.6163,342362
16.622,349165
16.6277,342826
16.6335,342581
16.6392,340012
16.6449,346158
16.6506,348299
16.6563,355577
16.6621,353968
16.6678,362974
16.6735,362803
16.6792,355344
16.685,360046
16.6907,362037
16.6964,368347
16.7021,359313
16.7078,361833
16.7136,369912
16.7193,373056
16.725,366698
16.7307,362721
16.7365,368547
16.7422,370395
16.7479,378527
16.7536,375236
16.7593,373497
16.765,379902
16.7708,386284
16.7765,379432
16.7822,379380
16.7879,387574
16.7937,388492
16.7994,388446
16.8051,396981
16.8108,397471
16.8165,397185
16.8223,396083
16.828,400231
16.8337,400150
16.8394,402806
16.8452,405092
16.8509,411349
16.8566,416242
16.8623,419577
16.8681,412813
16.8738,419558
16.8795,423721
16.8852,423861
16.8909,425693
16.8967,422888
16.9024,420734
16.9081,428429
16.9138,427004
16.9196,425064
16.9253,429405
16.931,434871
16.9367,430744
16.9424,441270
16.9482,446200
16.9539,445219
16.9596,434954
16.9653,440710
16.9711,439501
16.9768,440500
16.9825,449738
16.9882,449380
16.9939,448515
16.9996,453733
17.0054,459153
17.0111,458823
17.0168,455629
17.0225,451914
17.0283,464568
17.034,460578
17.0397,464863
17.0454,466348
17.0512,470528
17.0569,472783
17.0626,470594
17.0683,470876
17.0741,476989
17.0798,473487
17.0855,474715
17.0912,473873
17.0969,477387
17.1027,474738
17.1084,477373
17.1141,487854
17.1198,484014
17.1255,483844
17.1313,482873
17.137,484045
17.1427,485165
17.1484,494912
17.1542,494556
17.1599,492512
17.1656,492986
17.1713,497870
17.177,500227
17.1828,502421
17.1885,502809
17.1942,505041
17.1999,508012
17.2056,518163
17.2114,509610
17.2171,514527
17.2228,518617
17.2285,515210
17.2342,523138
17.24,519552
17.2457,527561
17.2514,526259
17.2571,528721
17.2629,533618
17.2686,525592
17.2743,529567
17.28,528338
17.2858,528889
17.2915,535540
17.2972,538733
17.3029,542064
17.3087,545270
17.3144,551640
17.3201,550434
17.3258,557169
17.3315,553265
17.3373,552395
17.343,562952
17.3487,560687
17.3544,564234
17.3601,567322
17.3659,568505
17.3716,574726
17.3773,569468
17.383,571719
17.3888,573514
17.3945,585561
17.4002,577767
17.4059,585402
17.4116,583051
17.4174,581494
17.4231,594812
17.4288,596604
17.4345,596187
17.4402,589512
17.446,590033
17.4517,598779
17.4574,602944
17.4631,610110
17.4689,607486
17.4746,614408
17.4803,611004
17.486,626054
17.4918,631683
17.4975,627870
17.5032,628191
17.5089,620951
17.5146,621629
17.5204,631574
17.5261,630895
17.5318,630207
17.5375,630114
17.5433,640627
17.549,636757
17.5547,647774
17.5604,643455
17.5661,645545
17.5719,654145
17.5776,658725
17.5833,657463
17.589,661643
17.5948,655450
17.6005,656042
17.6062,658648
17.6119,662198
17.6176,663555
17.6234,659942
17.6291,667834
17.6348,671278
17.6405,667847
17.6462,677818
17.652,681839
17.6577,674804
17.6634,684635
17.6691,680504
17.6748,687480
17.6806,687851
17.6863,680724
17.692,690510
17.6977,679249
17.7035,676740
17.7092,680079
17.7149,684882
17.7206,675144
17.7264,681562
17.7321,682181
17.7378,682250
17.7435,689771
17.7492,692404
17.755,683389
17.7607,686303
17.7664,678012
17.7721,686620
17.7779,680298
17.7836,686168
17.7893,688463
17.795,688733
17.8007,695422
17.8065,689705
17.8122,693051
17.8179,681219
17.8236,703736
17.8294,692437
17.8351,695903
17.8408,703994
17.8465,702623
17.8522,707885
17.858,697889
17.8637,698367
17.8694,691740
17.8751,694659
17.8808,690516
17.8866,702025
17.8923,693288
17.898,698093
17.9037,703670
17.9095,699696
17.9152,698648
17.9209,700844
17.9266,697496
17.9323,693804
17.9381,702935
17.9438,708924
17.9495,701402
17.9552,706116
17.961,713744
17.9667,701580
17.9724,705698
17.9781,709413
17.9838,697913
17.9896,703289
17.9953,714568
18.001,699650
18.0067,713966
18.0125,721481
18.0182,712431
18.0239,713824
18.0296,711923
18.0353,706705
18.0411,711153
18.0468,717600
18.0525,718164
18.0582,709403
18.064,705833
18.0697,717525
18.0754,722141
18.0811,722192
18.0868,726583
18.0925,728631
18.0983,726633
18.104,722786
18.1097,725210
18.1154,726875
18.1212,724017
18.1269,737515
18.1326,738441
18.1383,732298
18.1441,731617
18.1498,728577
18.1555,731925
18.1612,728436
18.1669,736079
18.1727,736213
18.1784,730610
18.1841,729196
18.1898,730302
18.1956,731124
18.2013,736649
18.207,736021
18.2127,729000
18.2184,742458
18.2242,733336
18.2299,745712
18.2356,735004
18.2413,730689
18.2471,744604
18.2528,739738
18.2585,736707
18.2642,741105
18.2699,743573
18.2757,746683
18.2814,749074
18.2871,754289
18.2928,750341
18.2986,741932
18.3043,737432
18.31,741081
18.3157,740913
18.3214,738578
18.3272,750139
18.3329,756061
18.3386,756438
18.3443,757176
18.3501,750260
18.3558,747520
18.3615,745238
18.3672,741034
18.3729,745471
18.3787,741893
18.3844,741654
18.3901,747047
18.3958,747646
18.4015,739446
18.4073,744137
18.413,747725
18.4187,742227
18.4244,745712
18.4302,747081
18.4359,752010
18.4416,745966
18.4473,756719
18.453,767581
18.4588,762943
18.4645,750231
18.4702,741907
18.4759,755063
18.4817,746062
18.4874,740426
18.4931,753234
18.4988,758162
18.5045,750899
18.5102,751510
18.516,751548
18.5217,751652
18.5274,747543
18.5331,742755
18.5389,750860
18.5446,748130
18.5503,749408
18.556,752876
18.5618,747108
18.5675,749432
18.5732,760592
18.5789,755851
18.5847,741658
18.5904,746753
18.5961,755447
18.6018,753736
18.6075,757740
18.6133,751902
18.619,746496
18.6247,742296
18.6304,749104
18.6361,747881
18.6419,747495
18.6476,755874
18.6533,753252
18.659,763833
18.6648,752342
18.6705,774157
18.6762,759823
18.6819,754875
18.6876,754920
18.6934,752458
18.6991,755587
18.7048,753854
18.7105,751637
18.7163,761439
18.722,763325
18.7277,757306
18.7334,751574
18.7391,756216
18.7449,753459
18.7506,751139
18.7563,741973
18.762,740429
18.7677,742844
18.7735,754974
18.7792,765423
18.7849,763059
18.7906,752925
18.7964,754301
18.8021,746103
18.8078,749354
18.8135,754971
18.8193,758976
18.825,754723
18.8307,754369
18.8364,758434
18.8421,756013
18.8479,757258
18.8536,751086
18.8593,750950
18.865,763768
18.8707,767412
18.8765,758158
18.8822,756467
18.8879,761741
18.8936,753666
18.8994,753908
18.9051,756684
18.9108,759151
18.9165,755080
18.9222,760962
18.928,748962
18.9337,756720
18.9394,753260
18.9451,750822
18.9509,750001
18.9566,756408
18.9623,745469
18.968,758617
18.9737,765020
18.9795,757620
18.9852,752856
18.9909,765503
18.9966,763426
19.0024,773745
19.0081,776432
19.0138,771232
19.0195,777315
19.0252,766156
19.031,776988
19.0367,772108
19.0424,762516
19.0481,770501
19.0539,772700
19.0596,775815
19.0653,774366
19.071,782330
19.0767,782847
19.0825,778996
19.0882,776577
19.0939,790351
19.0996,782882
19.1054,781375
19.1111,780885
19.1168,785883
19.1225,782331
19.1282,787597
19.134,789470
19.1397,778874
19.1454,788940
19.1511,801112
19.1568,783888
19.1626,796407
19.1683,786990
19.174,788012
19.1797,781985
19.1854,786517
19.1912,777148
19.1969,783973
19.2026,783241
19.2083,789744
19.2141,788753
19.2198,790266
19.2255,790606
19.2312,798548
19.237,788419
19.2427,795297
19.2484,782829
19.2541,792730
19.2598,800296
19.2656,787778
19.2713,789788
19.277,794358
19.2827,786366
19.2885,795586
19.2942,790804
19.2999,793282
19.3056,797142
19.3113,798352
19.3171,797010
19.3228,789724
19.3285,785992
19.3342,785485
19.34,782516
19.3457,789250
19.3514,788063
19.3571,783635
19.3628,775912
19.3686,778681
19.3743,776054
19.38,768444
19.3857,784223
19.3914,791916
19.3972,780209
19.4029,775319
19.4086,781360
19.4143,774134
19.4201,770645
19.4258,768807
19.4315,775976
19.4372,772788
19.4429,777501
19.4487,765885
19.4544,788387
19.4601,778397
19.4658,773208
19.4716,782383
19.4773,778254
19.483,784653
19.4887,785694
19.4944,794209
19.5002,792705
19.5059,789262
19.5116,773613
19.5173,789416
19.5231,786949
19.5288,780843
19.5345,792027
19.5402,783867
19.5459,793572
19.5517,780822
19.5574,788118
19.5631,775103
19.5688,777397
19.5746,772085
19.5803,767493
19.586,776488
19.5917,778155
19.5974,780275
19.6031,777967
19.6089,785519
19.6146,777354
19.6203,782221
19.626,787578
19.6318,785811
19.6375,783126
19.6432,785873
19.6489,786809
19.6547,787403
19.6604,783973
19.6661,775437
19.6718,790713
19.6775,787426
19.6833,790817
19.689,781791
19.6947,789232
19.7004,790719
19.7062,780612
19.7119,789106
19.7176,791258
19.7233,807736
19.729,799725
19.7348,797814
19.7405,802311
19.7462,797352
19.7519,799251
19.7577,803952
19.7634,799380
19.7691,802370
19.7748,815149
19.7805,808119
19.7863,813123
19.792,798246
19.7977,788343
19.8034,802399
19.8092,809670
19.8149,797443
19.8206,811771
19.8263,798523
19.832,811075
19.8378,812633
19.8435,805313
19.8492,801083
19.8549,806432
19.8607,805042
19.8664,802777
19.8721,805461
19.8778,805580
19.8835,807238
19.8893,796080
19.895,798216
19.9007,794025
19.9064,806907
19.9121,810782
19.9179,818720
19.9236,814501
19.9293,805394
19.935,817436
19.9408,812060
19.9465,821716
19.9522,812025
19.9579,813111
19.9636,809829
19.9694,814874
19.9751,816882
19.9808,807577
19.9865,803212
19.9923,815087
19.998,816045
20.0037,812589
20.0094,807178
20.0151,813098
20.0208,805726
20.0266,809356
20.0323,808950
20.038,809997
20.0437,818556
20.0495,819229
20.0552,812595
20.0609,821784
20.0666,815212
20.0724,805711
20.0781,814659
20.0838,809280
20.0895,814910
20.0953,819210
20.101,812230
20.1067,820251
20.1124,813241
20.1181,814537
20.1239,816593
20.1296,809957
20.1353,811595
20.141,816574
20.1467,807410
20.1525,810081
20.1582,805691
20.1639,806715
20.1696,810559
20.1754,800382
20.1811,802202
20.1868,809365
20.1925,800090
20.1982,805583
20.204,805134
20.2097,818878
20.2154,804910
20.2211,805151
20.2269,803637
20.2326,805853
20.2383,814503
20.244,807641
20.2497,812435
20.2555,817023
20.2612,804256
20.2669,812836
20.2726,805896
20.2784,809439
20.2841,810692
20.2898,795814
20.2955,802117
20.3012,795585
20.307,803690
20.3127,805206
20.3184,800950
20.3241,806487
20.3299,808490
20.3356,806546
20.3413,803906
20.347,800154
20.3527,793830
20.3585,797324
20.3642,804399
20.3699,804744
20.3756,805415
20.3813,805982
20.3871,799509
20.3928,805233
20.3985,795767
20.4042,798609
20.41,800336
20.4157,804705
20.4214,806573
20.4271,806114
20.4328,803865
20.4386,806291
20.4443,809858
20.45,811102
20.4557,805904
20.4614,793567
20.4672,792078
20.4729,808588
20.4786,813277
20.4843,807685
20.4901,805944
