C:\MSDCHEM\1\DATA\JAMES C\20180125 LACTONE WITH BME AND HYDROXYLAMINE\F 7hr.d 25 Jan 18  11:27 pm
Start of data points
3.0927,11682
3.09842,11334
3.10413,12659
3.10987,10794
3.11558,11828
3.1213,12115
3.12703,10313
3.13275,10610
3.13847,11358
3.1442,10315
3.14992,10860
3.15563,10745
3.16137,10137
3.16708,10018
3.1728,11173
3.17852,10417
3.18425,11875
3.18997,10782
3.19568,11614
3.20142,10501
3.20713,10592
3.21285,11216
3.21858,10393
3.2243,11369
3.23002,11234
3.23575,10688
3.24147,10783
3.24718,11625
3.25292,10137
3.25863,10658
3.26435,10300
3.27008,8830
3.2758,10587
3.28152,10365
3.28725,10538
3.29297,8723
3.29868,9327
3.3044,9118
3.31013,8322
3.31585,9128
3.32157,9868
3.3273,8597
3.33302,7160
3.33873,8307
3.34447,8119
3.35018,8257
3.3559,8905
3.36163,8252
3.36735,6803
3.37307,7246
3.3788,7705
3.38452,7001
3.39023,7283
3.39597,7551
3.40168,7355
3.4074,7520
3.41313,6896
3.41885,7675
3.42457,6965
3.43028,6127
3.43602,6831
3.44173,6914
3.44745,7395
3.45318,5948
3.4589,6525
3.46462,6542
3.47035,7077
3.47607,7799
3.48178,7563
3.48752,5834
3.49323,6767
3.49895,7034
3.50468,6627
3.5104,6319
3.51612,6487
3.52185,6733
3.52757,5561
3.53328,5748
3.53902,6467
3.54473,6301
3.55045,5682
3.55617,5614
3.5619,6640
3.56762,6120
3.57333,6071
3.57907,6699
3.58478,6043
3.5905,5120
3.59623,5878
3.60195,5633
3.60767,5572
3.6134,5150
3.61912,5762
3.62483,6259
3.63057,5849
3.63628,5363
3.642,4811
3.64773,5683
3.65345,5870
3.65917,4731
3.6649,4830
3.67062,5871
3.67633,5796
3.68205,6086
3.68778,5748
3.6935,5466
3.69922,5689
3.70495,6600
3.71067,4369
3.71638,4069
3.72212,5371
3.72783,4946
3.73355,4860
3.73928,4876
3.745,4380
3.75072,4479
3.75645,5475
3.76217,5594
3.76788,4445
3.77362,5040
3.77933,5182
3.78505,4633
3.79078,5369
3.7965,4728
3.80222,3801
3.80793,5141
3.81367,4143
3.81938,4669
3.8251,4479
3.83083,4265
3.83655,5108
3.84227,4960
3.848,4820
3.85372,4421
3.85943,4289
3.86517,4327
3.87088,4568
3.8766,4205
3.88233,4713
3.88805,4209
3.89377,5135
3.8995,4463
3.90522,4449
3.91093,4193
3.91667,3883
3.92238,3240
3.9281,4648
3.93382,4373
3.93955,3445
3.94527,3785
3.95098,4310
3.95672,4956
3.96243,3794
3.96815,3899
3.97388,3634
3.9796,4083
3.98532,3748
3.99105,3977
3.99677,4315
4.00248,3884
4.00822,3747
4.01393,3300
4.01965,3033
4.02538,3769
4.0311,4064
4.03682,3182
4.04255,4086
4.04827,3380
4.05398,3821
4.0597,3472
4.06543,3176
4.07115,3420
4.07687,4085
4.0826,3388
4.08832,4293
4.09403,3316
4.09977,3564
4.10548,3253
4.1112,3403
4.11693,3578
4.12265,2930
4.12837,3151
4.1341,3554
4.13982,3677
4.14553,3116
4.15127,3273
4.15698,3588
4.1627,3535
4.16843,2873
4.17415,3020
4.17987,3190
4.18558,2990
4.19132,3411
4.19703,3044
4.20275,3119
4.20848,3214
4.2142,3148
4.21992,4022
4.22565,2807
4.23137,3638
4.23708,2310
4.24282,2328
4.24853,2982
4.25425,3016
4.25998,3018
4.2657,3864
4.27142,3502
4.27715,2934
4.28287,2615
4.28858,3204
4.29432,3203
4.30003,3576
4.30575,3555
4.31147,3195
4.3172,3015
4.32292,3072
4.32863,3254
4.33437,2896
4.34008,3819
4.3458,3299
4.35153,3798
4.35725,4097
4.36297,4467
4.3687,3488
4.37442,4027
4.38013,4368
4.38587,3911
4.39158,4928
4.3973,3797
4.40303,4395
4.40875,4939
4.41447,4011
4.4202,4091
4.42592,5148
4.43163,5127
4.43735,4146
4.44308,4145
4.4488,4807
4.45452,4130
4.46025,4766
4.46597,4932
4.47168,3993
4.47742,4792
4.48313,4263
4.48885,4286
4.49458,4576
4.5003,5242
4.50602,4162
4.51175,4948
4.51747,4667
4.52318,4674
4.52892,5036
4.53463,3948
4.54035,4631
4.54608,3127
4.5518,3156
4.55752,3486
4.56323,3481
4.56897,3382
4.57468,3282
4.5804,3469
4.58613,3199
4.59185,2596
4.59757,3451
4.6033,3108
4.60902,2546
4.61473,3300
4.62047,3513
4.62618,3796
4.6319,3119
4.63763,3241
4.64335,3874
4.64907,3615
4.6548,3149
4.66052,2702
4.66623,3009
4.67197,2864
4.67768,2806
4.6834,2994
4.68912,3020
4.69485,2196
4.70057,2733
4.70628,2852
4.71202,2989
4.71773,2865
4.72345,2665
4.72918,2496
4.7349,2786
4.74062,2526
4.74635,2711
4.75207,2561
4.75778,3015
4.76352,2518
4.76923,2344
4.77495,2478
4.78068,2624
4.7864,2986
4.79212,2222
4.79785,2193
4.80357,2518
4.80928,2315
4.815,2604
4.82073,2880
4.82645,2117
4.83217,2243
4.8379,2116
4.84362,1684
4.84933,2012
4.85507,2293
4.86078,2230
4.8665,2308
4.87223,1931
4.87795,2654
4.88367,1978
4.8894,2374
4.89512,1940
4.90083,1890
4.90657,3043
4.91228,2669
4.918,2255
4.92373,2517
4.92945,1921
4.93517,2144
4.94088,1257
4.94662,2874
4.95233,2813
4.95805,2275
4.96378,2184
4.9695,1966
4.97522,1647
4.98095,2469
4.98667,1501
4.99238,2186
4.99812,2274
5.00383,2343
5.00955,2378
5.01528,2459
5.021,2303
5.02672,1971
5.03245,2624
5.03817,1946
5.04388,2066
5.04962,2158
5.05533,2547
5.06105,2419
5.06677,1969
5.0725,1883
5.07822,2026
5.08393,2308
5.08967,1949
5.09538,1714
5.1011,1913
5.10683,2079
5.11255,2007
5.11827,2082
5.124,1517
5.12972,1965
5.13543,2008
5.14117,1910
5.14688,1927
5.1526,1852
5.15833,1244
5.16405,2224
5.16977,1840
5.1755,2150
5.18122,1819
5.18693,1518
5.19265,1976
5.19838,2200
5.2041,1947
5.20982,1815
5.21555,1492
5.22127,2486
5.22698,1711
5.23272,1698
5.23843,2023
5.24415,2409
5.24988,916
5.2556,2288
5.26132,1759
5.26705,1532
5.27277,1838
5.27848,1828
5.28422,2026
5.28993,2211
5.29565,1988
5.30138,1679
5.3071,2604
5.31282,1955
5.31853,1822
5.32427,1817
5.32998,1987
5.3357,1540
5.34143,2083
5.34715,1804
5.35287,1882
5.3586,1315
5.36432,1714
5.37003,1588
5.37577,1705
5.38148,1993
5.3872,1757
5.39293,2448
5.39865,3622
5.40437,3750
5.4101,2664
5.41582,3488
5.42153,4231
5.42727,5300
5.43298,4820
5.4387,4824
5.44442,4726
5.45015,4884
5.45587,4263
5.46158,3946
5.46732,3426
5.47303,4008
5.47875,3604
5.48448,3582
5.4902,2819
5.49592,3614
5.50165,2584
5.50737,3469
5.51308,3077
5.51882,2715
5.52453,2335
5.53025,2087
5.53598,2668
5.5417,2563
5.54742,2121
5.55315,1998
5.55887,2154
5.56458,1565
5.5703,1801
5.57603,2161
5.58175,2412
5.58747,2488
5.5932,2090
5.59892,1908
5.60463,1501
5.61037,1815
5.61608,1760
5.6218,1612
5.62753,1764
5.63325,1844
5.63897,1717
5.6447,2595
5.65042,1934
5.65613,1771
5.66187,2053
5.66758,1198
5.6733,1665
5.67903,1209
5.68475,1109
5.69047,1682
5.69618,2321
5.70192,1502
5.70763,1502
5.71335,2008
5.71908,2000
5.7248,1731
5.73052,1869
5.73625,1515
5.74197,1621
5.74768,1727
5.75342,1650
5.75913,1852
5.76485,1979
5.77058,1310
5.7763,1807
5.78202,1677
5.78775,1615
5.79347,1266
5.79918,1554
5.80492,1934
5.81063,1688
5.81635,2175
5.82207,1409
5.8278,1282
5.83352,1028
5.83923,1841
5.84497,1733
5.85068,1573
5.8564,1350
5.86213,1674
5.86785,1435
5.87357,1508
5.8793,1165
5.88502,1406
5.89073,1795
5.89647,2129
5.90218,1177
5.9079,1200
5.91363,1535
5.91935,1654
5.92507,1031
5.9308,956
5.93652,853
5.94223,1625
5.94795,1299
5.95368,1476
5.9594,1065
5.96512,2049
5.97085,1640
5.97657,1259
5.98228,1562
5.98802,1858
5.99373,1931
5.99945,1719
6.00518,1733
6.0109,996
6.01662,1488
6.02235,1095
6.02807,1378
6.03378,1563
6.03952,1737
6.04523,1749
6.05095,2087
6.05668,1561
6.0624,2245
6.06812,1965
6.07383,2329
6.07957,1982
6.08528,1729
6.091,1829
6.09673,2026
6.10245,984
6.10817,1962
6.1139,1639
6.11962,1449
6.12533,1810
6.13107,1587
6.13678,1390
6.1425,1533
6.14823,1843
6.15395,1918
6.15967,1738
6.1654,2339
6.17112,1881
6.17683,1839
6.18257,1493
6.18828,1607
6.194,1488
6.19973,1682
6.20545,1797
6.21117,1667
6.21688,1600
6.22262,1592
6.22833,1201
6.23405,1950
6.23978,1424
6.2455,869
6.25122,1501
6.25695,1473
6.26267,749
6.26838,1425
6.27412,1481
6.27983,1816
6.28555,1682
6.29128,1813
6.297,2200
6.30272,1691
6.30845,1456
6.31417,1249
6.31988,1449
6.32562,1432
6.33133,2161
6.33705,1962
6.34277,1875
6.3485,1898
6.35422,2168
6.35993,1746
6.36567,1479
6.37138,1857
6.3771,1262
6.38283,1374
6.38855,1872
6.39427,1431
6.4,1612
6.40572,1073
6.41143,1818
6.41717,1568
6.42288,1730
6.4286,2301
6.43433,1546
6.44005,1987
6.44577,1691
6.4515,1598
6.45722,1960
6.46293,1726
6.46865,1549
6.47438,1650
6.4801,1074
6.48582,1584
6.49155,2695
6.49727,1814
6.50298,1779
6.50872,1692
6.51443,1933
6.52015,1854
6.52588,1930
6.5316,1905
6.53732,2072
6.54305,867
6.54877,1343
6.55448,1300
6.56022,1580
6.56593,2343
6.57165,1993
6.57738,2079
6.5831,1407
6.58882,1768
6.59453,1994
6.60027,2025
6.60598,1347
6.6117,1904
6.61743,1631
6.62315,2139
6.62887,1802
6.6346,2257
6.64032,2256
6.64603,2570
6.65177,1944
6.65748,2400
6.6632,2628
6.66893,2651
6.67465,3264
6.68037,2750
6.6861,2242
6.69182,2455
6.69753,2673
6.70327,3274
6.70898,2529
6.7147,2552
6.72042,3644
6.72615,2651
6.73187,2663
6.73758,3266
6.74332,2803
6.74903,2807
6.75475,2777
6.76048,2586
6.7662,3059
6.77192,2813
6.77765,2112
6.78337,2459
6.78908,2618
6.79482,2404
6.80053,1742
6.80625,2777
6.81198,2140
6.8177,2286
6.82342,2341
6.82915,2787
6.83487,2630
6.84058,2513
6.8463,2183
6.85203,1524
6.85775,2249
6.86347,2434
6.8692,1757
6.87492,2601
6.88063,2537
6.88637,2494
6.89208,2011
6.8978,2135
6.90353,1887
6.90925,1978
6.91497,2375
6.9207,2102
6.92642,2461
6.93213,2782
6.93787,2375
6.94358,1832
6.9493,1821
6.95503,1891
6.96075,2990
6.96647,2111
6.97218,2001
6.97792,1995
6.98363,2744
6.98935,2042
6.99508,2181
7.0008,1693
7.00652,2258
7.01225,2281
7.01797,2081
7.02368,2322
7.02942,2500
7.03513,1799
7.04085,1633
7.04658,2497
7.0523,2037
7.05802,2004
7.06375,2520
7.06947,2669
7.07518,3120
7.08092,2935
7.08663,4071
7.09235,5260
7.09807,5560
7.1038,6671
7.10952,6983
7.11523,8426
7.12097,8310
7.12668,7911
7.1324,7272
7.13813,7920
7.14385,6724
7.14957,6157
7.1553,5171
7.16102,3828
7.16673,4255
7.17247,4818
7.17818,4225
7.1839,2936
7.18963,2275
7.19535,2660
7.20107,2723
7.2068,3175
7.21252,3426
7.21823,3277
7.22395,2637
7.22968,2085
7.2354,2154
7.24112,2645
7.24685,2128
7.25257,2933
7.25828,1511
7.26402,2180
7.26973,2490
7.27545,2496
7.28118,3083
7.2869,4786
7.29262,6173
7.29835,9375
7.30407,12274
7.30978,12641
7.31552,13176
7.32123,12112
7.32695,10222
7.33268,8234
7.3384,6032
7.34412,6035
7.34983,4469
7.35557,4289
7.36128,3651
7.367,4001
7.37273,3468
7.37845,3146
7.38417,2325
7.3899,3032
7.39562,2932
7.40133,1736
7.40707,2870
7.41278,2573
7.4185,2313
7.42423,2516
7.42995,2192
7.43567,2663
7.4414,1667
7.44712,2950
7.45283,2088
7.45857,1563
7.46428,2039
7.47,1547
7.47572,3041
7.48145,1442
7.48717,2994
7.49288,1464
7.49862,2443
7.50433,2417
7.51005,2263
7.51578,2535
7.5215,1827
7.52722,2423
7.53295,2692
7.53867,2396
7.54438,3053
7.55012,2230
7.55583,2641
7.56155,2566
7.56728,1868
7.573,2101
7.57872,2158
7.58445,2608
7.59017,1934
7.59588,2092
7.6016,2545
7.60733,2581
7.61305,2558
7.61877,2167
7.6245,1936
7.63022,2613
7.63593,2338
7.64167,2308
7.64738,2208
7.6531,1812
7.65883,2331
7.66455,2173
7.67027,2666
7.676,2441
7.68172,2066
7.68743,2940
7.69317,2297
7.69888,2104
7.7046,2592
7.71033,2618
7.71605,2469
7.72177,2546
7.72748,2057
7.73322,2489
7.73893,3268
7.74465,2275
7.75038,2770
7.7561,1913
7.76182,2298
7.76755,2405
7.77327,2623
7.77898,2083
7.78472,2410
7.79043,2316
7.79615,1874
7.80188,2025
7.8076,2028
7.81332,2206
7.81905,3293
7.82477,1897
7.83048,2152
7.83622,2623
7.84193,2013
7.84765,2003
7.85337,2593
7.8591,1884
7.86482,2020
7.87053,3002
7.87627,2483
7.88198,2573
7.8877,1913
7.89343,1976
7.89915,2237
7.90487,2524
7.9106,2680
7.91632,2633
7.92203,2265
7.92777,2440
7.93348,2979
7.9392,2523
7.94493,2414
7.95065,1649
7.95637,2925
7.9621,2484
7.96782,3077
7.97353,2385
7.97925,2533
7.98498,2795
7.9907,3338
7.99642,2111
8.00215,2110
8.00787,2273
8.01358,3020
8.01932,2551
8.02503,1454
8.03075,2817
8.03648,2549
8.0422,1971
8.04792,2172
8.05365,2438
8.05937,3040
8.06508,2264
8.07082,2487
8.07653,2129
8.08225,2122
8.08798,2516
8.0937,3005
8.09942,2101
8.10513,2485
8.11087,2246
8.11658,2256
8.1223,2837
8.12803,2704
8.13375,2624
8.13947,2802
8.1452,3139
8.15092,2263
8.15663,2247
8.16237,2068
8.16808,3113
8.1738,1934
8.17953,2520
8.18525,2691
8.19097,2675
8.1967,3317
8.20242,2058
8.20813,2422
8.21387,1930
8.21958,2440
8.2253,2070
8.23102,2607
8.23675,2610
8.24247,3353
8.24818,1749
8.25392,2620
8.25963,2330
8.26535,2216
8.27108,2470
8.2768,2707
8.28252,2831
8.28825,2582
8.29397,2421
8.29968,2360
8.30542,2395
8.31113,2273
8.31685,2130
8.32258,2051
8.3283,1871
8.33402,2740
8.33975,2166
8.34547,2488
8.35118,2408
8.3569,2419
8.36263,3136
8.36835,3099
8.37407,2151
8.3798,2472
8.38552,2469
8.39123,2669
8.39697,2476
8.40268,2335
8.4084,2090
8.41413,1884
8.41985,2726
8.42557,2116
8.4313,2327
8.43702,3180
8.44273,2509
8.44847,2343
8.45418,2005
8.4599,2905
8.46563,2768
8.47135,3028
8.47707,2692
8.48278,2194
8.48852,2186
8.49423,2121
8.49995,2561
8.50568,2889
8.5114,2824
8.51712,1916
8.52285,2297
8.52857,2888
8.53428,2005
8.54002,2211
8.54573,2550
8.55145,2624
8.55718,2909
8.5629,2293
8.56862,2417
8.57435,1894
8.58007,2276
8.58578,2480
8.59152,2067
8.59723,2599
8.60295,2559
8.60867,2655
8.6144,2400
8.62012,3349
8.62583,2527
8.63157,2140
8.63728,2591
8.643,2220
8.64873,2392
8.65445,3080
8.66017,2730
8.6659,2616
8.67162,2396
8.67733,2563
8.68307,2686
8.68878,2686
8.6945,2924
8.70023,1818
8.70595,1910
8.71167,2778
8.7174,2598
8.72312,2494
8.72883,2634
8.73455,2738
8.74028,2118
8.746,2087
8.75172,2980
8.75745,2199
8.76317,2558
8.76888,2266
8.77462,2523
8.78033,2468
8.78605,2352
8.79178,2616
8.7975,2046
8.80322,2989
8.80895,2969
8.81467,2389
8.82038,2486
8.82612,1945
8.83183,2526
8.83755,2623
8.84328,2233
8.849,3329
8.85472,2190
8.86043,3077
8.86617,2619
8.87188,2782
8.8776,2317
8.88333,2249
8.88905,2954
8.89477,2823
8.9005,2596
8.90622,2961
8.91193,2195
8.91767,3010
8.92338,2790
8.9291,2393
8.93483,3073
8.94055,2429
8.94627,2551
8.952,2915
8.95772,2339
8.96343,2691
8.96917,3093
8.97488,4931
8.9806,8419
8.98632,11267
8.99205,15743
8.99777,16481
9.00348,12279
9.00922,9289
9.01493,7029
9.02065,4532
9.02638,3728
9.0321,2872
9.03782,2828
9.04355,2862
9.04927,2796
9.05498,3406
9.06072,2403
9.06643,2831
9.07215,2523
9.07788,3018
9.0836,3627
9.08932,2651
9.09505,3061
9.10077,2621
9.10648,2582
9.1122,3040
9.11793,2545
9.12365,1793
9.12937,3214
9.1351,2381
9.14082,3023
9.14653,2497
9.15227,3128
9.15798,2533
9.1637,3227
9.16943,2404
9.17515,2327
9.18087,2067
9.1866,3002
9.19232,2380
9.19803,2329
9.20377,2791
9.20948,2561
9.2152,3084
9.22093,3384
9.22665,2445
9.23237,2383
9.23808,2719
9.24382,2885
9.24953,3103
9.25525,3126
9.26098,2650
9.2667,2522
9.27242,3019
9.27815,3217
9.28387,2371
9.28958,2366
9.29532,2530
9.30103,2924
9.30675,2608
9.31248,2792
9.3182,2641
9.32392,2275
9.32965,2839
9.33537,2576
9.34108,3080
9.34682,3482
9.35253,2705
9.35825,2593
9.36397,2071
9.3697,3174
9.37542,2540
9.38113,2562
9.38687,2468
9.39258,2323
9.3983,2901
9.40403,2580
9.40975,2786
9.41547,2565
9.4212,2502
9.42692,2613
9.43263,2319
9.43837,2739
9.44408,2818
9.4498,2488
9.45553,2153
9.46125,2753
9.46697,2228
9.4727,2529
9.47842,2793
9.48413,2681
9.48985,3068
9.49558,2706
9.5013,2907
9.50702,2967
9.51275,3133
9.51847,2738
9.52418,2837
9.52992,2205
9.53563,2854
9.54135,3342
9.54708,2253
9.5528,2984
9.55852,2983
9.56425,2498
9.56997,2159
9.57568,2499
9.58142,2825
9.58713,2120
9.59285,2803
9.59858,2166
9.6043,3275
9.61002,2553
9.61573,3089
9.62147,2752
9.62718,3211
9.6329,2996
9.63863,3305
9.64435,2917
9.65007,2554
9.6558,3623
9.66152,2868
9.66723,2809
9.67297,2855
9.67868,2912
9.6844,3451
9.69013,2972
9.69585,2853
9.70157,3006
9.7073,2459
9.71302,2980
9.71873,3636
9.72447,2873
9.73018,3096
9.7359,2258
9.74163,2936
9.74735,3118
9.75307,2972
9.75878,2877
9.76452,3109
9.77023,2696
9.77595,2957
9.78168,2644
9.7874,3133
9.79312,2764
9.79885,3122
9.80457,2856
9.81028,2858
9.81602,3365
9.82173,2901
9.82745,3217
9.83318,2998
9.8389,2613
9.84462,2889
9.85035,2686
9.85607,3190
9.86178,2797
9.86752,3440
9.87323,3063
9.87895,2507
9.88467,3339
9.8904,2346
9.89612,2652
9.90183,2811
9.90757,3223
9.91328,3421
9.919,3176
9.92473,2970
9.93045,3561
9.93617,2650
9.9419,2799
9.94762,3304
9.95333,3091
9.95907,3104
9.96478,2612
9.9705,2586
9.97623,3274
9.98195,2651
9.98767,3073
9.9934,2625
9.99912,2936
10.0048,3564
10.0106,3046
10.0163,3230
10.022,2956
10.0277,3303
10.0335,3178
10.0392,2758
10.0449,2341
10.0506,3135
10.0563,2809
10.0621,2961
10.0678,3085
10.0735,3530
10.0792,3017
10.085,2883
10.0907,3266
10.0964,3164
10.1021,3110
10.1078,3804
10.1136,3015
10.1193,2801
10.125,2638
10.1307,3056
10.1364,2973
10.1422,3159
10.1479,3236
10.1536,3053
10.1593,2648
10.1651,3322
10.1708,3442
10.1765,2879
10.1822,2843
10.1879,2507
10.1937,3206
10.1994,2699
10.2051,2851
10.2108,3136
10.2166,2223
10.2223,2122
10.228,3070
10.2337,2455
10.2394,2891
10.2452,2956
10.2509,3314
10.2566,2856
10.2623,2710
10.2681,2918
10.2738,2840
10.2795,3156
10.2852,2552
10.2909,2152
10.2967,3008
10.3024,3195
10.3081,2590
10.3138,2936
10.3196,2310
10.3253,2368
10.331,2907
10.3367,3022
10.3424,2776
10.3482,3090
10.3539,2902
10.3596,3714
10.3653,3507
10.3711,2699
10.3768,2989
10.3825,2710
10.3882,3098
10.3939,3045
10.3997,3017
10.4054,3739
10.4111,3358
10.4168,4442
10.4225,7276
10.4283,12020
10.434,15561
10.4397,13220
10.4454,9524
10.4512,6363
10.4569,3787
10.4626,2716
10.4683,3350
10.474,3328
10.4798,2713
10.4855,3139
10.4912,2531
10.4969,3821
10.5027,3601
10.5084,3585
10.5141,2887
10.5198,3580
10.5255,2822
10.5313,2819
10.537,2385
10.5427,2576
10.5484,3283
10.5542,3581
10.5599,2902
10.5656,3430
10.5713,2235
10.577,2744
10.5828,3076
10.5885,3797
10.5942,7839
10.5999,20773
10.6057,60983
10.6114,120075
10.6171,169654
10.6228,172870
10.6285,123379
10.6343,67288
10.64,28470
10.6457,12908
10.6514,7974
10.6571,7355
10.6629,10573
10.6686,11126
10.6743,10776
10.68,7637
10.6858,5675
10.6915,4897
10.6972,3175
10.7029,4772
10.7086,3058
10.7144,4438
10.7201,3399
10.7258,3512
10.7315,3186
10.7373,2685
10.743,2292
10.7487,2610
10.7544,3468
10.7601,2929
10.7659,3537
10.7716,3959
10.7773,2762
10.783,4049
10.7888,3101
10.7945,3397
10.8002,3431
10.8059,3214
10.8116,3200
10.8174,3374
10.8231,4361
10.8288,4761
10.8345,6229
10.8403,6899
10.846,6699
10.8517,5318
10.8574,4098
10.8631,3859
10.8689,3382
10.8746,3715
10.8803,3611
10.886,3609
10.8917,3082
10.8975,2956
10.9032,3109
10.9089,3531
10.9146,2885
10.9204,2913
10.9261,3167
10.9318,4264
10.9375,3356
10.9432,2982
10.949,2922
10.9547,2966
10.9604,3467
10.9661,3660
10.9719,3933
10.9776,3394
10.9833,2911
10.989,3021
10.9947,4042
11.0005,3353
11.0062,3672
11.0119,3898
11.0176,3634
11.0234,3714
11.0291,3665
11.0348,3402
11.0405,3581
11.0462,4049
11.052,3755
11.0577,3725
11.0634,4099
11.0691,3267
11.0749,2625
11.0806,3911
11.0863,2940
11.092,3334
11.0977,2996
11.1035,3082
11.1092,4005
11.1149,4368
11.1206,3780
11.1264,3821
11.1321,3104
11.1378,3417
11.1435,2901
11.1492,3950
11.155,3915
11.1607,4148
11.1664,3923
11.1721,3435
11.1778,3396
11.1836,3489
11.1893,4308
11.195,3749
11.2007,3975
11.2065,4306
11.2122,5474
11.2179,6082
11.2236,6778
11.2293,6345
11.2351,7602
11.2408,7038
11.2465,7975
11.2522,7972
11.258,8483
11.2637,7497
11.2694,7995
11.2751,7405
11.2808,8207
11.2866,6649
11.2923,7019
11.298,6785
11.3037,7515
11.3095,6014
11.3152,6658
11.3209,6785
11.3266,6325
11.3323,6840
11.3381,6493
11.3438,6382
11.3495,5983
11.3552,6541
11.361,5992
11.3667,5029
11.3724,6415
11.3781,5628
11.3838,4664
11.3896,6119
11.3953,5534
11.401,5567
11.4067,6217
11.4124,5347
11.4182,6117
11.4239,4870
11.4296,5704
11.4353,5502
11.4411,4928
11.4468,4735
11.4525,5151
11.4582,5184
11.4639,5659
11.4697,4725
11.4754,5088
11.4811,4980
11.4868,6138
11.4926,4994
11.4983,4284
11.504,4233
11.5097,5535
11.5154,3803
11.5212,5165
11.5269,5612
11.5326,5282
11.5383,5321
11.5441,5406
11.5498,4702
11.5555,4675
11.5612,4989
11.5669,5128
11.5727,4770
11.5784,4954
11.5841,4554
11.5898,4206
11.5956,4657
11.6013,4129
11.607,5088
11.6127,4867
11.6184,4626
11.6242,4617
11.6299,4196
11.6356,4593
11.6413,4283
11.647,4522
11.6528,4924
11.6585,4844
11.6642,3953
11.6699,4477
11.6757,3904
11.6814,3459
11.6871,4920
11.6928,4084
11.6985,5260
11.7043,6210
11.71,8658
11.7157,11398
11.7214,12480
11.7272,10827
11.7329,8293
11.7386,6229
11.7443,4209
11.75,4197
11.7558,3728
11.7615,4802
11.7672,4894
11.7729,3759
11.7787,4334
11.7844,4000
11.7901,3584
11.7958,4465
11.8015,4021
11.8073,4668
11.813,4321
11.8187,4795
11.8244,3814
11.8302,4656
11.8359,3448
11.8416,3913
11.8473,4415
11.853,2994
11.8588,3864
11.8645,3886
11.8702,4465
11.8759,3692
11.8817,3658
11.8874,4412
11.8931,3928
11.8988,3676
11.9045,4613
11.9103,4257
11.916,4055
11.9217,4462
11.9274,4196
11.9331,4143
11.9389,4181
11.9446,4469
11.9503,4125
11.956,4347
11.9618,4038
11.9675,4316
11.9732,4577
11.9789,3827
11.9846,3250
11.9904,4301
11.9961,3503
12.0018,3906
12.0075,4590
12.0133,4105
12.019,4829
12.0247,3364
12.0304,5056
12.0361,4289
12.0419,3958
12.0476,5051
12.0533,4517
12.059,4577
12.0648,4273
12.0705,4025
12.0762,4533
12.0819,4597
12.0876,4045
12.0934,4259
12.0991,5559
12.1048,4432
12.1105,5306
12.1163,8758
12.122,10147
12.1277,11026
12.1334,9208
12.1391,7485
12.1449,6052
12.1506,5104
12.1563,4740
12.162,5083
12.1677,4482
12.1735,4228
12.1792,4695
12.1849,4960
12.1906,4980
12.1964,4772
12.2021,3983
12.2078,4695
12.2135,4810
12.2192,4404
12.225,4120
12.2307,5003
12.2364,4210
12.2421,5158
12.2479,4447
12.2536,3892
12.2593,4791
12.265,4880
12.2707,4209
12.2765,4610
12.2822,4563
12.2879,4562
12.2936,5213
12.2994,5940
12.3051,5189
12.3108,5607
12.3165,5403
12.3222,5891
12.328,4786
12.3337,4874
12.3394,5006
12.3451,5303
12.3509,5049
12.3566,6455
12.3623,5614
12.368,5575
12.3737,6529
12.3795,5713
12.3852,6026
12.3909,6436
12.3966,6764
12.4023,5931
12.4081,6623
12.4138,6735
12.4195,8048
12.4252,7140
12.431,7041
12.4367,9172
12.4424,8904
12.4481,7044
12.4538,8680
12.4596,8339
12.4653,7638
12.471,8880
12.4767,8577
12.4825,8917
12.4882,8588
12.4939,7752
12.4996,10299
12.5053,8499
12.5111,9502
12.5168,9490
12.5225,8397
12.5282,8806
12.534,8038
12.5397,8526
12.5454,9094
12.5511,8016
12.5568,9631
12.5626,9220
12.5683,8521
12.574,7898
12.5797,7589
12.5855,8696
12.5912,8578
12.5969,9490
12.6026,8849
12.6083,9211
12.6141,9215
12.6198,9727
12.6255,10439
12.6312,9190
12.637,8801
12.6427,10407
12.6484,8953
12.6541,9868
12.6598,9375
12.6656,9299
12.6713,10089
12.677,9158
12.6827,9015
12.6884,9897
12.6942,8795
12.6999,9667
12.7056,9807
12.7113,9533
12.7171,8609
12.7228,9470
12.7285,9514
12.7342,10153
12.7399,9008
12.7457,9098
12.7514,9102
12.7571,9600
12.7628,8927
12.7686,9219
12.7743,9007
12.78,8503
12.7857,8543
12.7914,9915
12.7972,8959
12.8029,9645
12.8086,9138
12.8143,8937
12.8201,8413
12.8258,9296
12.8315,8767
12.8372,8614
12.8429,9124
12.8487,7912
12.8544,8692
12.8601,9446
12.8658,8734
12.8716,8604
12.8773,9092
12.883,9925
12.8887,13268
12.8944,15252
12.9002,15918
12.9059,14827
12.9116,12290
12.9173,9994
12.923,7555
12.9288,8131
12.9345,9300
12.9402,8593
12.9459,9621
12.9517,10061
12.9574,8698
12.9631,8055
12.9688,9039
12.9745,8976
12.9803,8165
12.986,9266
12.9917,8289
12.9974,9192
13.0032,8159
13.0089,8107
13.0146,8407
13.0203,7189
13.026,8447
13.0318,8987
13.0375,8306
13.0432,8009
13.0489,7832
13.0547,6840
13.0604,7351
13.0661,7735
13.0718,8325
13.0775,6671
13.0833,7553
13.089,7496
13.0947,7434
13.1004,7686
13.1062,7613
13.1119,8190
13.1176,6966
13.1233,7047
13.129,8013
13.1348,7186
13.1405,6824
13.1462,7438
13.1519,6884
13.1576,6045
13.1634,7147
13.1691,7576
13.1748,7268
13.1805,7652
13.1863,6600
13.192,6858
13.1977,7275
13.2034,6873
13.2091,7299
13.2149,8151
13.2206,6416
13.2263,6428
13.232,7462
13.2378,6867
13.2435,8169
13.2492,6513
13.2549,7648
13.2606,7100
13.2664,7301
13.2721,7542
13.2778,6647
13.2835,7137
13.2893,7057
13.295,7688
13.3007,7587
13.3064,7589
13.3121,8048
13.3179,6588
13.3236,7439
13.3293,7903
13.335,6774
13.3408,7233
13.3465,7259
13.3522,7379
13.3579,7190
13.3636,8975
13.3694,7330
13.3751,7034
13.3808,8017
13.3865,7719
13.3923,8039
13.398,6741
13.4037,7255
13.4094,7400
13.4151,7650
13.4209,8600
13.4266,7741
13.4323,6032
13.438,8061
13.4437,7408
13.4495,7165
13.4552,6863
13.4609,7556
13.4666,6973
13.4724,7410
13.4781,7205
13.4838,9026
13.4895,7973
13.4952,7922
13.501,8104
13.5067,7994
13.5124,8078
13.5181,7963
13.5239,8031
13.5296,7161
13.5353,7988
13.541,9178
13.5467,8070
13.5525,7194
13.5582,7663
13.5639,7887
13.5696,8609
13.5754,9091
13.5811,9222
13.5868,9195
13.5925,9415
13.5982,8441
13.604,8427
13.6097,8726
13.6154,8909
13.6211,8399
13.6269,8661
13.6326,8033
13.6383,8375
13.644,7447
13.6497,8169
13.6555,8343
13.6612,7065
13.6669,8289
13.6726,8366
13.6783,8531
13.6841,6618
13.6898,8245
13.6955,7939
13.7012,8069
13.707,7723
13.7127,8261
13.7184,8358
13.7241,7625
13.7298,8339
13.7356,7867
13.7413,7536
13.747,7548
13.7527,7863
13.7585,7719
13.7642,8336
13.7699,7859
13.7756,8000
13.7813,7052
13.7871,6902
13.7928,7738
13.7985,7731
13.8042,7818
13.81,7347
13.8157,7711
13.8214,7883
13.8271,7728
13.8328,7706
13.8386,8391
13.8443,7858
13.85,8123
13.8557,7577
13.8615,7557
13.8672,7661
13.8729,7325
13.8786,7938
13.8843,6742
13.8901,8227
13.8958,7757
13.9015,8307
13.9072,7673
13.913,7678
13.9187,7822
13.9244,6310
13.9301,8056
13.9358,7241
13.9416,7980
13.9473,8519
13.953,9031
13.9587,13616
13.9644,16146
13.9702,15723
13.9759,14744
13.9816,12286
13.9873,10188
13.9931,8375
13.9988,8683
14.0045,6967
14.0102,8168
14.0159,7562
14.0217,8143
14.0274,8585
14.0331,7742
14.0388,7199
14.0446,7671
14.0503,7781
14.056,7743
14.0617,7470
14.0674,7449
14.0732,8382
14.0789,7302
14.0846,8265
14.0903,8429
14.0961,7349
14.1018,7196
14.1075,7924
14.1132,6071
14.1189,7496
14.1247,7419
14.1304,8153
14.1361,9139
14.1418,8529
14.1476,8996
14.1533,10793
14.159,10000
14.1647,8016
14.1704,8920
14.1762,8113
14.1819,8231
14.1876,7899
14.1933,9085
14.199,8404
14.2048,7868
14.2105,8589
14.2162,8734
14.2219,8026
14.2277,8280
14.2334,8037
14.2391,8810
14.2448,8703
14.2505,8387
14.2563,8305
14.262,7737
14.2677,7680
14.2734,8254
14.2792,8457
14.2849,10157
14.2906,9414
14.2963,8887
14.302,8744
14.3078,8960
14.3135,8979
14.3192,8875
14.3249,9320
14.3307,7889
14.3364,9300
14.3421,9183
14.3478,9398
14.3535,9020
14.3593,9386
14.365,8814
14.3707,8463
14.3764,8506
14.3822,8552
14.3879,9359
14.3936,8989
14.3993,9537
14.405,9547
14.4108,9684
14.4165,9195
14.4222,9233
14.4279,10373
14.4336,9968
14.4394,9635
14.4451,10474
14.4508,8851
14.4565,9757
14.4623,9239
14.468,9767
14.4737,9710
14.4794,9306
14.4851,9839
14.4909,10991
14.4966,9597
14.5023,10547
14.508,10156
14.5138,10519
14.5195,10734
14.5252,10393
14.5309,10744
14.5366,11048
14.5424,11087
14.5481,10371
14.5538,10665
14.5595,9318
14.5653,10266
14.571,10504
14.5767,10812
14.5824,10954
14.5881,10568
14.5939,10434
14.5996,10163
14.6053,10351
14.611,10496
14.6168,10677
14.6225,10981
14.6282,11920
14.6339,10263
14.6396,10817
14.6454,11012
14.6511,10779
14.6568,10270
14.6625,11717
14.6683,10140
14.674,10221
14.6797,11749
14.6854,12199
14.6911,11347
14.6969,11998
14.7026,11115
14.7083,12074
14.714,11273
14.7197,11162
14.7255,11246
14.7312,11808
14.7369,11050
14.7426,11789
14.7484,11761
14.7541,12838
14.7598,11224
14.7655,13079
14.7712,12239
14.777,12851
14.7827,11094
14.7884,12470
14.7941,11805
14.7999,12953
14.8056,12031
14.8113,11962
14.817,12451
14.8227,11758
14.8285,12487
14.8342,11992
14.8399,13386
14.8456,13154
14.8514,13013
14.8571,13989
14.8628,13003
14.8685,13906
14.8742,12627
14.88,14684
14.8857,14099
14.8914,13232
14.8971,14324
14.9029,13271
14.9086,13676
14.9143,13826
14.92,14238
14.9257,13917
14.9315,15169
14.9372,15424
14.9429,17925
14.9486,20450
14.9543,25468
14.9601,23672
14.9658,20656
14.9715,19723
14.9772,15942
14.983,16369
14.9887,15013
14.9944,15281
15.0001,14978
15.0058,15623
15.0116,16074
15.0173,16249
15.023,14777
15.0287,15082
15.0345,16710
15.0402,15237
15.0459,14707
15.0516,16482
15.0573,15094
15.0631,16392
15.0688,15821
15.0745,15274
15.0802,15125
15.086,15983
15.0917,16501
15.0974,16993
15.1031,14194
15.1088,14908
15.1146,16373
15.1203,17300
15.126,16809
15.1317,17525
15.1375,17136
15.1432,16667
15.1489,16418
15.1546,19077
15.1603,17880
15.1661,18037
15.1718,17641
15.1775,18545
15.1832,17049
15.1889,16184
15.1947,17955
15.2004,17486
15.2061,16666
15.2118,17685
15.2176,17373
15.2233,18857
15.229,18059
15.2347,18246
15.2404,18997
15.2462,19216
15.2519,19667
15.2576,19735
15.2633,19095
15.2691,17799
15.2748,19564
15.2805,20039
15.2862,18544
15.2919,19223
15.2977,20552
15.3034,19583
15.3091,18960
15.3148,17968
15.3206,19508
15.3263,20730
15.332,19890
15.3377,20474
15.3434,20132
15.3492,19673
15.3549,20829
15.3606,20951
15.3663,20861
15.3721,20214
15.3778,21059
15.3835,21472
15.3892,21577
15.3949,22708
15.4007,20745
15.4064,21216
15.4121,21653
15.4178,21269
15.4236,21829
15.4293,22597
15.435,20633
15.4407,20339
15.4464,21721
15.4522,21977
15.4579,22562
15.4636,22506
15.4693,22667
15.475,23279
15.4808,21834
15.4865,22030
15.4922,22031
15.4979,23385
15.5037,24052
15.5094,23616
15.5151,24088
15.5208,25893
15.5265,22690
15.5323,24113
15.538,23683
15.5437,23399
15.5494,23523
15.5552,26341
15.5609,24019
15.5666,25638
15.5723,23969
15.578,24782
15.5838,26188
15.5895,26053
15.5952,25740
15.6009,24393
15.6067,26040
15.6124,26593
15.6181,26195
15.6238,27642
15.6295,26327
15.6353,25504
15.641,27027
15.6467,26639
15.6524,26778
15.6582,26372
15.6639,28878
15.6696,26509
15.6753,27149
15.681,29182
15.6868,26457
15.6925,29493
15.6982,29261
15.7039,28528
15.7096,27113
15.7154,27912
15.7211,29442
15.7268,29592
15.7325,29314
15.7383,28782
15.744,28612
15.7497,29066
15.7554,30023
15.7611,30570
15.7669,29488
15.7726,29666
15.7783,28549
15.784,28171
15.7898,30797
15.7955,30290
15.8012,32065
15.8069,30721
15.8126,31285
15.8184,31887
15.8241,32678
15.8298,31644
15.8355,30439
15.8413,31893
15.847,32069
15.8527,32917
15.8584,31794
15.8641,34025
15.8699,34445
15.8756,39039
15.8813,40762
15.887,42976
15.8928,43586
15.8985,40323
15.9042,38711
15.9099,34949
15.9156,35321
15.9214,34329
15.9271,35775
15.9328,34225
15.9385,34244
15.9442,35699
15.95,33702
15.9557,35015
15.9614,33108
15.9671,32079
15.9729,35146
15.9786,37048
15.9843,34697
15.99,35044
15.9957,36631
16.0015,36458
16.0072,36227
16.0129,35029
16.0186,37108
16.0243,35838
16.0301,35365
16.0358,37382
16.0415,37134
16.0472,38212
16.053,38568
16.0587,38231
16.0644,38037
16.0701,38673
16.0758,38782
16.0816,37920
16.0873,39546
16.093,40955
16.0987,39841
16.1045,40362
16.1102,39883
16.1159,39629
16.1216,39468
16.1274,40699
16.1331,38996
16.1388,41016
16.1445,39861
16.1502,41382
16.156,43185
16.1617,41925
16.1674,43691
16.1731,44289
16.1789,43286
16.1846,42831
16.1903,41965
16.196,42121
16.2017,43762
16.2075,45838
16.2132,45099
16.2189,43604
16.2246,42374
16.2303,42796
16.2361,45717
16.2418,43285
16.2475,46518
16.2532,43650
16.2589,44150
16.2647,43212
16.2704,45486
16.2761,43794
16.2818,45887
16.2876,45110
16.2933,45323
16.299,46365
16.3047,42427
16.3104,45461
16.3162,46859
16.3219,45126
16.3276,47508
16.3333,48319
16.3391,47772
16.3448,48215
16.3505,45955
16.3562,47664
16.362,46308
16.3677,46909
16.3734,48117
16.3791,47949
16.3848,47408
16.3906,46946
16.3963,49465
16.402,49273
16.4077,49051
16.4135,51581
16.4192,50433
16.4249,49648
16.4306,48397
16.4363,52382
16.442,51521
16.4478,52375
16.4535,52352
16.4592,50406
16.4649,52143
16.4707,51303
16.4764,52148
16.4821,52250
16.4878,50264
16.4935,55485
16.4993,53688
16.505,54047
16.5107,53206
16.5164,53491
16.5222,53964
16.5279,53975
16.5336,56042
16.5393,55224
16.5451,55808
16.5508,55256
16.5565,56763
16.5622,57823
16.5679,58556
16.5737,57430
16.5794,56621
16.5851,58188
16.5908,58176
16.5966,59173
16.6023,57387
16.608,62354
16.6137,58894
16.6194,59109
16.6252,59389
16.6309,61527
16.6366,61169
16.6423,57204
16.6481,59843
16.6538,62622
16.6595,62469
16.6652,63318
16.6709,63257
16.6766,60747
16.6824,63243
16.6881,63561
16.6938,61722
16.6995,62742
16.7053,67299
16.711,66509
16.7167,65563
16.7224,64101
16.7281,65848
16.7339,63768
16.7396,69221
16.7453,71871
16.751,72006
16.7568,77316
16.7625,78866
16.7682,76884
16.7739,75536
16.7797,71210
16.7854,72132
16.7911,67804
16.7968,69378
16.8025,67147
16.8083,69602
16.814,71559
16.8197,70122
16.8254,68276
16.8312,69225
16.8369,71602
16.8426,71993
16.8483,71284
16.854,68961
16.8597,71573
16.8655,73466
16.8712,74801
16.8769,71548
16.8827,71212
16.8884,73109
16.8941,71765
16.8998,75139
16.9055,72090
16.9112,74694
16.917,74843
16.9227,74009
16.9284,75058
16.9341,75781
16.9399,76553
16.9456,76117
16.9513,74780
16.957,78746
16.9628,78818
16.9685,81666
16.9742,77875
16.9799,79498
16.9856,78463
16.9914,81260
16.9971,81073
17.0028,81430
17.0085,81949
17.0143,83928
17.02,82825
17.0257,82113
17.0314,85180
17.0371,83125
17.0429,82651
17.0486,82200
17.0543,84829
17.06,85364
17.0658,81179
17.0715,79839
17.0772,84808
17.0829,85805
17.0886,84326
17.0943,84822
17.1001,87220
17.1058,84936
17.1115,84214
17.1172,87436
17.123,85809
17.1287,82869
17.1344,86268
17.1401,86448
17.1458,86019
17.1516,85399
17.1573,85390
17.163,86841
17.1687,87742
17.1745,86783
17.1802,90708
17.1859,89875
17.1916,88817
17.1974,88204
17.2031,89982
17.2088,90548
17.2145,89233
17.2202,91286
17.226,91507
17.2317,91945
17.2374,89733
17.2431,91784
17.2489,93503
17.2546,91811
17.2603,92003
17.266,93328
17.2717,89977
17.2775,89598
17.2832,92093
17.2889,91836
17.2946,92903
17.3004,93696
17.3061,95859
17.3118,96361
17.3175,94587
17.3232,95635
17.3289,96147
17.3347,96187
17.3404,96719
17.3461,93984
17.3518,94997
17.3576,96716
17.3633,95913
17.369,94602
17.3747,95433
17.3805,97877
17.3862,97173
17.3919,94888
17.3976,99271
17.4034,97960
17.4091,96782
17.4148,97264
17.4205,101228
17.4262,96007
17.432,98454
17.4377,98549
17.4434,100466
17.4491,101630
17.4548,102226
17.4606,99883
17.4663,101013
17.472,100845
17.4777,98426
17.4835,101009
17.4892,97363
17.4949,100717
17.5006,100736
17.5063,101405
17.5121,105393
17.5178,101023
17.5235,100264
17.5292,98951
17.535,103737
17.5407,99950
17.5464,101682
17.5521,100129
17.5578,100668
17.5636,102247
17.5693,103871
17.575,101421
17.5807,104822
17.5864,103678
17.5922,106050
17.5979,109478
17.6036,112717
17.6093,112850
17.6151,114652
17.6208,112541
17.6265,109276
17.6322,108671
17.638,105553
17.6437,105367
17.6494,104160
17.6551,104390
17.6608,102859
17.6666,107144
17.6723,107182
17.678,104072
17.6837,101657
17.6895,106894
17.6952,105474
17.7009,106086
17.7066,104496
17.7123,103736
17.7181,102592
17.7238,106751
17.7295,105687
17.7352,107305
17.7409,105180
17.7467,103380
17.7524,102923
17.7581,106600
17.7638,105057
17.7696,103800
17.7753,106897
17.781,104761
17.7867,104248
17.7924,107519
17.7982,108786
17.8039,105744
17.8096,102602
17.8153,105968
17.8211,107504
17.8268,103797
17.8325,104593
17.8382,108238
17.8439,105020
17.8497,107937
17.8554,106539
17.8611,108638
17.8668,106004
17.8726,109285
17.8783,104969
17.884,106388
17.8897,107528
17.8954,110628
17.9012,109745
17.9069,108564
17.9126,107017
17.9183,107982
17.9241,106623
17.9298,107010
17.9355,109094
17.9412,108364
17.9469,105494
17.9527,108920
17.9584,110400
17.9641,106766
17.9698,106138
17.9755,106586
17.9813,106813
17.987,111111
17.9927,107272
