C:\MSDCHEM\1\DATA\MANDKHAI\20180626 MTH_C12COA\SLR_NltAB_E57Q_French_1.d 27 Jun 18  12:31 pm
Start of data points
5.09263,223
5.09837,183
5.10408,231
5.1098,251
5.11553,258
5.12125,158
5.12697,168
5.1327,154
5.13842,204
5.14413,275
5.14987,176
5.15558,178
5.1613,209
5.16703,239
5.17275,206
5.17847,176
5.1842,259
5.18992,191
5.19563,181
5.20135,154
5.20708,224
5.2128,187
5.21852,0
5.22425,162
5.22997,0
5.23568,207
5.24142,192
5.24713,0
5.25285,205
5.25858,220
5.2643,0
5.27002,0
5.27575,193
5.28147,155
5.28718,152
5.29292,201
5.29863,158
5.30435,203
5.31008,0
5.3158,221
5.32152,0
5.32723,231
5.33297,166
5.33868,0
5.3444,194
5.35013,240
5.35585,167
5.36157,150
5.3673,0
5.37302,238
5.37873,218
5.38447,157
5.39018,0
5.3959,199
5.40163,179
5.40735,249
5.41307,166
5.4188,157
5.42452,0
5.43023,152
5.43597,215
5.44168,0
5.4474,202
5.45312,0
5.45885,154
5.46457,155
5.47028,161
5.47602,0
5.48173,151
5.48745,0
5.49318,0
5.4989,159
5.50462,218
5.51035,0
5.51607,0
5.52178,168
5.52752,154
5.53323,0
5.53895,221
5.54468,194
5.5504,219
5.55612,172
5.56185,232
5.56757,184
5.57328,161
5.579,219
5.58473,151
5.59045,0
5.59617,153
5.6019,0
5.60762,0
5.61333,0
5.61907,0
5.62478,0
5.6305,152
5.63623,188
5.64195,150
5.64767,157
5.6534,0
5.65912,169
5.66483,0
5.67057,0
5.67628,0
5.682,198
5.68773,165
5.69345,0
5.69917,204
5.70488,0
5.71062,150
5.71633,0
5.72205,0
5.72778,199
5.7335,0
5.73922,0
5.74495,158
5.75067,0
5.75638,0
5.76212,0
5.76783,159
5.77355,0
5.77928,0
5.785,164
5.79072,0
5.79645,0
5.80217,0
5.80788,0
5.81362,165
5.81933,0
5.82505,175
5.83077,0
5.8365,0
5.84222,0
5.84793,0
5.85367,0
5.85938,0
5.8651,0
5.87083,0
5.87655,196
5.88227,0
5.888,0
5.89372,0
5.89943,0
5.90517,0
5.91088,0
5.9166,0
5.92233,0
5.92805,0
5.93377,0
5.9395,0
5.94522,0
5.95093,0
5.95665,0
5.96238,0
5.9681,0
5.97382,0
5.97955,0
5.98527,0
5.99098,174
5.99672,0
6.00243,172
6.00815,0
6.01388,0
6.0196,0
6.02532,0
6.03105,150
6.03677,0
6.04248,0
6.04822,0
6.05393,0
6.05965,0
6.06538,0
6.0711,158
6.07682,155
6.08253,318
6.08827,159
6.09398,0
6.0997,0
6.10543,155
6.11115,181
6.11687,0
6.1226,0
6.12832,0
6.13403,0
6.13977,0
6.14548,169
6.1512,0
6.15693,0
6.16265,188
6.16837,0
6.1741,179
6.17982,0
6.18553,153
6.19127,0
6.19698,0
6.2027,0
6.20842,0
6.21415,0
6.21987,0
6.22558,0
6.23132,0
6.23703,167
6.24275,0
6.24848,0
6.2542,0
6.25992,0
6.26565,0
6.27137,0
6.27708,0
6.28282,0
6.28853,164
6.29425,160
6.29998,0
6.3057,188
6.31142,0
6.31715,0
6.32287,0
6.32858,0
6.3343,0
6.34003,0
6.34575,0
6.35147,0
6.3572,0
6.36292,0
6.36863,0
6.37437,156
6.38008,0
6.3858,0
6.39153,214
6.39725,0
6.40297,0
6.4087,0
6.41442,154
6.42013,0
6.42587,0
6.43158,0
6.4373,0
6.44303,0
6.44875,0
6.45447,0
6.46018,0
6.46592,0
6.47163,166
6.47735,0
6.48308,0
6.4888,0
6.49452,0
6.50025,0
6.50597,0
6.51168,0
6.51742,0
6.52313,151
6.52885,0
6.53458,519
6.5403,458
6.54602,551
6.55175,478
6.55747,294
6.56318,407
6.56892,189
6.57463,171
6.58035,164
6.58608,0
6.5918,0
6.59752,357
6.60323,0
6.60897,167
6.61468,0
6.6204,0
6.62613,0
6.63185,0
6.63757,0
6.6433,0
6.64902,160
6.65473,0
6.66047,0
6.66618,174
6.6719,0
6.67763,0
6.68335,0
6.68907,0
6.6948,0
6.70052,0
6.70623,0
6.71197,0
6.71768,0
6.7234,0
6.72912,228
6.73485,153
6.74057,251
6.74628,254
6.75202,0
6.75773,0
6.76345,245
6.76918,198
6.7749,161
6.78062,180
6.78635,0
6.79207,0
6.79778,165
6.80352,0
6.80923,158
6.81495,0
6.82068,0
6.8264,0
6.83212,0
6.83785,0
6.84357,0
6.84928,198
6.855,0
6.86073,0
6.86645,0
6.87217,0
6.8779,0
6.88362,0
6.88933,0
6.89507,0
6.90078,0
6.9065,0
6.91223,0
6.91795,0
6.92367,0
6.9294,0
6.93512,0
6.94083,0
6.94657,0
6.95228,0
6.958,0
6.96373,0
6.96945,0
6.97517,0
6.98088,0
6.98662,0
6.99233,0
6.99805,0
7.00378,0
7.0095,0
7.01522,0
7.02095,0
7.02667,0
7.03238,0
7.03812,0
7.04383,0
7.04955,0
7.05528,0
7.061,0
7.06672,0
7.07245,0
7.07817,0
7.08388,0
7.08962,0
7.09533,0
7.10105,0
7.10677,0
7.1125,0
7.11822,0
7.12393,0
7.12967,0
7.13538,0
7.1411,0
7.14683,0
7.15255,167
7.15827,0
7.164,0
7.16972,0
7.17543,161
7.18117,0
7.18688,0
7.1926,0
7.19833,0
7.20405,164
7.20977,0
7.2155,0
7.22122,0
7.22693,0
7.23265,150
7.23838,0
7.2441,0
7.24982,0
7.25555,0
7.26127,0
7.26698,0
7.27272,0
7.27843,0
7.28415,0
7.28988,0
7.2956,0
7.30132,0
7.30705,0
7.31277,0
7.31848,0
7.32422,0
7.32993,0
7.33565,0
7.34138,0
7.3471,0
7.35282,0
7.35853,0
7.36427,0
7.36998,0
7.3757,0
7.38143,0
7.38715,0
7.39287,0
7.3986,0
7.40432,0
7.41003,0
7.41577,0
7.42148,0
7.4272,0
7.43293,156
7.43865,0
7.44437,159
7.4501,0
7.45582,0
7.46153,0
7.46727,0
7.47298,0
7.4787,0
7.48442,0
7.49015,0
7.49587,0
7.50158,0
7.50732,0
7.51303,0
7.51875,0
7.52448,0
7.5302,0
7.53592,0
7.54165,0
7.54737,0
7.55308,0
7.55882,0
7.56453,0
7.57025,0
7.57598,0
7.5817,0
7.58742,151
7.59315,158
7.59887,0
7.60458,0
7.6103,0
7.61603,0
7.62175,0
7.62747,0
7.6332,0
7.63892,0
7.64463,0
7.65037,0
7.65608,0
7.6618,160
7.66753,159
7.67325,0
7.67897,0
7.6847,0
7.69042,0
7.69613,0
7.70187,0
7.70758,0
7.7133,0
7.71903,0
7.72475,0
7.73047,0
7.73618,0
7.74192,0
7.74763,0
7.75335,0
7.75908,0
7.7648,0
7.77052,0
7.77625,0
7.78197,0
7.78768,0
7.79342,0
7.79913,0
7.80485,0
7.81058,0
7.8163,0
7.82202,0
7.82775,0
7.83347,0
7.83918,0
7.84492,0
7.85063,0
7.85635,0
7.86207,0
7.8678,0
7.87352,0
7.87923,0
7.88497,0
7.89068,0
7.8964,0
7.90213,0
7.90785,0
7.91357,0
7.9193,0
7.92502,0
7.93073,0
7.93647,0
7.94218,0
7.9479,0
7.95363,0
7.95935,0
7.96507,0
7.9708,0
7.97652,0
7.98223,0
7.98795,0
7.99368,0
7.9994,0
8.00512,0
8.01085,0
8.01657,0
8.02228,0
8.02802,0
8.03373,0
8.03945,0
8.04518,0
8.0509,0
8.05662,0
8.06235,154
8.06807,0
8.07378,0
8.07952,0
8.08523,0
8.09095,0
8.09668,0
8.1024,0
8.10812,0
8.11383,0
8.11957,0
8.12528,0
8.131,0
8.13673,0
8.14245,0
8.14817,0
8.1539,0
8.15962,0
8.16533,0
8.17107,0
8.17678,0
8.1825,0
8.18823,0
8.19395,0
8.19967,0
8.2054,0
8.21112,0
8.21683,0
8.22257,0
8.22828,0
8.234,0
8.23972,0
8.24545,0
8.25117,0
8.25688,0
8.26262,0
8.26833,0
8.27405,0
8.27978,0
8.2855,0
8.29122,0
8.29695,0
8.30267,0
8.30838,0
8.31412,0
8.31983,0
8.32555,0
8.33128,0
8.337,0
8.34272,0
8.34845,0
8.35417,0
8.35988,0
8.3656,0
8.37133,0
8.37705,0
8.38277,0
8.3885,0
8.39422,0
8.39993,0
8.40567,0
8.41138,0
8.4171,0
8.42283,0
8.42855,0
8.43427,0
8.44,0
8.44572,0
8.45143,0
8.45717,0
8.46288,0
8.4686,0
8.47433,0
8.48005,172
8.48577,0
8.49148,0
8.49722,268
8.50293,0
8.50865,0
8.51438,0
8.5201,0
8.52582,0
8.53155,0
8.53727,0
8.54298,0
8.54872,0
8.55443,0
8.56015,0
8.56588,0
8.5716,0
8.57732,0
8.58305,0
8.58877,0
8.59448,0
8.60022,0
8.60593,0
8.61165,0
8.61737,0
8.6231,0
8.62882,0
8.63453,0
8.64027,0
8.64598,0
8.6517,0
8.65743,0
8.66315,0
8.66887,152
8.6746,0
8.68032,0
8.68603,0
8.69177,0
8.69748,0
8.7032,0
8.70893,0
8.71465,0
8.72037,0
8.7261,0
8.73182,0
8.73753,0
8.74325,0
8.74898,0
8.7547,0
8.76042,0
8.76615,0
8.77187,0
8.77758,0
8.78332,0
8.78903,0
8.79475,0
8.80048,0
8.8062,0
8.81192,0
8.81765,0
8.82337,0
8.82908,0
8.83482,0
8.84053,0
8.84625,0
8.85198,0
8.8577,0
8.86342,0
8.86913,0
8.87487,0
8.88058,0
8.8863,0
8.89203,0
8.89775,0
8.90347,0
8.9092,0
8.91492,0
8.92063,0
8.92637,0
8.93208,0
8.9378,0
8.94353,0
8.94925,0
8.95497,0
8.9607,0
8.96642,0
8.97213,0
8.97787,0
8.98358,0
8.9893,0
8.99502,0
9.00075,0
9.00647,0
9.01218,0
9.01792,0
9.02363,0
9.02935,0
9.03508,0
9.0408,0
9.04652,0
9.05225,0
9.05797,0
9.06368,0
9.06942,0
9.07513,0
9.08085,0
9.08658,0
9.0923,0
9.09802,0
9.10375,0
9.10947,0
9.11518,0
9.1209,0
9.12663,0
9.13235,0
9.13807,0
9.1438,0
9.14952,0
9.15523,0
9.16097,0
9.16668,0
9.1724,0
9.17813,0
9.18385,0
9.18957,0
9.1953,0
9.20102,0
9.20673,0
9.21247,0
9.21818,0
9.2239,0
9.22963,0
9.23535,0
9.24107,0
9.24678,0
9.25252,0
9.25823,0
9.26395,0
9.26968,0
9.2754,0
9.28112,0
9.28685,0
9.29257,0
9.29828,0
9.30402,0
9.30973,0
9.31545,0
9.32118,0
9.3269,0
9.33262,0
9.33835,0
9.34407,0
9.34978,0
9.35552,0
9.36123,0
9.36695,0
9.37267,0
9.3784,0
9.38412,0
9.38983,0
9.39557,0
9.40128,0
9.407,0
9.41273,0
9.41845,0
9.42417,0
9.4299,0
9.43562,0
9.44133,0
9.44707,0
9.45278,0
9.4585,0
9.46423,0
9.46995,0
9.47567,0
9.4814,0
9.48712,0
9.49283,0
9.49855,0
9.50428,0
9.51,0
9.51572,0
9.52145,0
9.52717,0
9.53288,0
9.53862,0
9.54433,0
9.55005,0
9.55578,0
9.5615,0
9.56722,0
9.57295,0
9.57867,0
9.58438,0
9.59012,0
9.59583,0
9.60155,0
9.60728,0
9.613,0
9.61872,0
9.62443,0
9.63017,0
9.63588,0
9.6416,0
9.64733,0
9.65305,0
9.65877,0
9.6645,0
9.67022,0
9.67593,0
9.68167,0
9.68738,0
9.6931,0
9.69883,153
9.70455,0
9.71027,0
9.716,0
9.72172,0
9.72743,0
9.73317,0
9.73888,0
9.7446,0
9.75032,0
9.75605,0
9.76177,0
9.76748,0
9.77322,0
9.77893,0
9.78465,0
9.79038,0
9.7961,0
9.80182,0
9.80755,0
9.81327,0
9.81898,0
9.82472,0
9.83043,0
9.83615,0
9.84188,0
9.8476,0
9.85332,0
9.85905,165
9.86477,0
9.87048,0
9.8762,0
9.88193,0
9.88765,0
9.89337,0
9.8991,0
9.90482,0
9.91053,0
9.91627,0
9.92198,0
9.9277,0
9.93343,0
9.93915,0
9.94487,0
9.9506,0
9.95632,0
9.96203,0
9.96777,0
9.97348,0
9.9792,0
9.98493,0
9.99065,0
9.99637,0
10.0021,0
10.0078,0
10.0135,180
10.0193,171
10.025,0
10.0307,0
10.0364,0
10.0422,0
10.0479,0
10.0536,0
10.0593,0
10.065,0
10.0708,0
10.0765,0
10.0822,0
10.0879,0
10.0937,0
10.0994,0
10.1051,0
10.1108,0
10.1165,0
10.1223,0
10.128,0
10.1337,0
10.1394,0
10.1451,0
10.1509,0
10.1566,0
10.1623,0
10.168,0
10.1738,0
10.1795,0
10.1852,0
10.1909,0
10.1966,0
10.2024,0
10.2081,0
10.2138,0
10.2195,0
10.2253,0
10.231,0
10.2367,0
10.2424,0
10.2481,0
10.2539,0
10.2596,0
10.2653,0
10.271,0
10.2768,0
10.2825,0
10.2882,0
10.2939,0
10.2996,0
10.3054,0
10.3111,0
10.3168,0
10.3225,0
10.3283,0
10.334,0
10.3397,0
10.3454,0
10.3511,0
10.3569,0
10.3626,0
10.3683,0
10.374,0
10.3798,0
10.3855,0
10.3912,0
10.3969,0
10.4026,0
10.4084,0
10.4141,0
10.4198,0
10.4255,0
10.4312,0
10.437,0
10.4427,0
10.4484,0
10.4541,0
10.4599,0
10.4656,0
10.4713,0
10.477,0
10.4827,0
10.4885,0
10.4942,0
10.4999,0
10.5056,0
10.5114,153
10.5171,0
10.5228,0
10.5285,0
10.5342,0
10.54,0
10.5457,0
10.5514,0
10.5571,0
10.5629,0
10.5686,0
10.5743,0
10.58,0
10.5857,0
10.5915,0
10.5972,0
10.6029,0
10.6086,0
10.6144,0
10.6201,176
10.6258,0
10.6315,0
10.6372,0
10.643,0
10.6487,192
10.6544,154
10.6601,0
10.6658,0
10.6716,0
10.6773,0
10.683,0
10.6887,0
10.6945,0
10.7002,0
10.7059,0
10.7116,0
10.7173,0
10.7231,151
10.7288,0
10.7345,0
10.7402,0
10.746,0
10.7517,0
10.7574,0
10.7631,0
10.7688,0
10.7746,0
10.7803,0
10.786,0
10.7917,0
10.7975,0
10.8032,0
10.8089,0
10.8146,0
10.8203,0
10.8261,0
10.8318,0
10.8375,0
10.8432,0
10.849,0
10.8547,0
10.8604,0
10.8661,0
10.8718,0
10.8776,165
10.8833,0
10.889,0
10.8947,0
10.9004,0
10.9062,0
10.9119,154
10.9176,172
10.9233,0
10.9291,0
10.9348,0
10.9405,161
10.9462,0
10.9519,0
10.9577,0
10.9634,0
10.9691,0
10.9748,0
10.9806,0
10.9863,0
10.992,0
10.9977,0
11.0034,0
11.0092,0
11.0149,0
11.0206,0
11.0263,0
11.0321,156
11.0378,219
11.0435,174
11.0492,191
11.0549,0
11.0607,0
11.0664,0
11.0721,0
11.0778,160
11.0836,152
11.0893,0
11.095,0
11.1007,0
11.1064,0
11.1122,0
11.1179,0
11.1236,0
11.1293,0
11.1351,162
11.1408,0
11.1465,0
11.1522,0
11.1579,0
11.1637,0
11.1694,0
11.1751,0
11.1808,0
11.1865,0
11.1923,0
11.198,0
11.2037,151
11.2094,0
11.2152,0
11.2209,0
11.2266,0
11.2323,0
11.238,0
11.2438,0
11.2495,0
11.2552,0
11.2609,0
11.2667,171
11.2724,0
11.2781,203
11.2838,0
11.2895,0
11.2953,0
11.301,0
11.3067,0
11.3124,0
11.3182,0
11.3239,0
11.3296,0
11.3353,0
11.341,0
11.3468,0
11.3525,0
11.3582,157
11.3639,0
11.3697,0
11.3754,0
11.3811,0
11.3868,0
11.3925,193
11.3983,161
11.404,0
11.4097,0
11.4154,0
11.4211,0
11.4269,0
11.4326,182
11.4383,0
11.444,0
11.4498,0
11.4555,0
11.4612,168
11.4669,150
11.4726,0
11.4784,0
11.4841,0
11.4898,0
11.4955,0
11.5013,0
11.507,0
11.5127,0
11.5184,0
11.5241,0
11.5299,181
11.5356,0
11.5413,0
11.547,0
11.5528,0
11.5585,0
11.5642,0
11.5699,171
11.5756,0
11.5814,169
11.5871,0
11.5928,202
11.5985,0
11.6043,219
11.61,0
11.6157,0
11.6214,0
11.6271,0
11.6329,0
11.6386,213
11.6443,214
11.65,0
11.6557,0
11.6615,170
11.6672,0
11.6729,166
11.6786,0
11.6844,169
11.6901,0
11.6958,0
11.7015,172
11.7072,0
11.713,0
11.7187,0
11.7244,0
11.7301,0
11.7359,199
11.7416,170
11.7473,219
11.753,150
11.7587,0
11.7645,0
11.7702,230
11.7759,173
11.7816,189
11.7874,0
11.7931,0
11.7988,169
11.8045,0
11.8102,0
11.816,0
11.8217,0
11.8274,0
11.8331,0
11.8389,164
11.8446,212
11.8503,0
11.856,156
11.8617,182
11.8675,0
11.8732,215
11.8789,0
11.8846,0
11.8904,0
11.8961,159
11.9018,0
11.9075,0
11.9132,0
11.919,162
11.9247,157
11.9304,233
11.9361,0
11.9418,201
11.9476,179
11.9533,172
11.959,253
11.9647,259
11.9705,0
11.9762,172
11.9819,0
11.9876,0
11.9933,0
11.9991,0
12.0048,193
12.0105,188
12.0162,195
12.022,180
12.0277,0
12.0334,197
12.0391,0
12.0448,181
12.0506,204
12.0563,155
12.062,0
12.0677,158
12.0735,150
12.0792,233
12.0849,178
12.0906,157
12.0963,191
12.1021,0
12.1078,167
12.1135,187
12.1192,0
12.125,197
12.1307,213
12.1364,191
12.1421,218
12.1478,211
12.1536,158
12.1593,182
12.165,0
12.1707,163
12.1764,0
12.1822,238
12.1879,198
12.1936,200
12.1993,156
12.2051,0
12.2108,164
12.2165,180
12.2222,164
12.2279,212
12.2337,175
12.2394,0
12.2451,0
12.2508,207
12.2566,328
12.2623,239
12.268,230
12.2737,191
12.2794,232
12.2852,153
12.2909,219
12.2966,167
12.3023,203
12.3081,0
12.3138,247
12.3195,220
12.3252,184
12.3309,0
12.3367,187
12.3424,163
12.3481,170
12.3538,282
12.3596,202
12.3653,271
12.371,180
12.3767,163
12.3824,249
12.3882,210
12.3939,157
12.3996,0
12.4053,228
12.411,0
12.4168,199
12.4225,192
12.4282,239
12.4339,187
12.4397,203
12.4454,181
12.4511,181
12.4568,215
12.4625,245
12.4683,225
12.474,0
12.4797,160
12.4854,0
12.4912,161
12.4969,181
12.5026,186
12.5083,278
12.514,197
12.5198,0
12.5255,0
12.5312,207
12.5369,0
12.5427,214
12.5484,176
12.5541,210
12.5598,198
12.5655,261
12.5713,301
12.577,258
12.5827,193
12.5884,231
12.5942,202
12.5999,370
12.6056,249
12.6113,190
12.617,247
12.6228,385
12.6285,164
12.6342,214
12.6399,261
12.6457,215
12.6514,206
12.6571,251
12.6628,190
12.6685,183
12.6743,210
12.68,218
12.6857,169
12.6914,310
12.6971,228
12.7029,210
12.7086,220
12.7143,195
12.72,188
12.7258,236
12.7315,192
12.7372,284
12.7429,233
12.7486,361
12.7544,195
12.7601,350
12.7658,201
12.7715,189
12.7773,198
12.783,239
12.7887,255
12.7944,375
12.8001,181
12.8059,202
12.8116,240
12.8173,277
12.823,274
12.8288,175
12.8345,258
12.8402,201
12.8459,235
12.8516,215
12.8574,305
12.8631,196
12.8688,297
12.8745,177
12.8803,274
12.886,237
12.8917,186
12.8974,324
12.9031,213
12.9089,222
12.9146,483
12.9203,271
12.926,362
12.9317,301
12.9375,169
12.9432,495
12.9489,242
12.9546,216
12.9604,287
12.9661,468
12.9718,282
12.9775,269
12.9832,258
12.989,429
12.9947,276
13.0004,248
13.0061,251
13.0119,259
13.0176,242
13.0233,490
13.029,308
13.0347,410
13.0405,262
13.0462,291
13.0519,228
13.0576,279
13.0634,155
13.0691,234
13.0748,254
13.0805,421
13.0862,520
13.092,262
13.0977,251
13.1034,375
13.1091,499
13.1149,361
13.1206,594
13.1263,208
13.132,573
13.1377,292
13.1435,313
13.1492,380
13.1549,312
13.1606,281
13.1663,404
13.1721,488
13.1778,489
13.1835,296
13.1892,277
13.195,249
13.2007,320
13.2064,356
13.2121,348
13.2178,384
13.2236,451
13.2293,409
13.235,340
13.2407,324
13.2465,373
13.2522,454
13.2579,343
13.2636,463
13.2693,399
13.2751,323
13.2808,503
13.2865,260
13.2922,521
13.298,444
13.3037,513
13.3094,494
13.3151,538
13.3208,500
13.3266,365
13.3323,423
13.338,377
13.3437,362
13.3495,270
13.3552,450
13.3609,304
13.3666,221
13.3723,272
13.3781,375
13.3838,436
13.3895,611
13.3952,408
13.401,484
13.4067,359
13.4124,412
13.4181,460
13.4238,554
13.4296,451
13.4353,548
13.441,435
13.4467,361
13.4524,343
13.4582,496
13.4639,396
13.4696,513
13.4753,384
13.4811,505
13.4868,222
13.4925,370
13.4982,566
13.5039,264
13.5097,302
13.5154,409
13.5211,434
13.5268,501
13.5326,638
13.5383,310
13.544,268
13.5497,599
13.5554,238
13.5612,411
13.5669,377
13.5726,611
13.5783,388
13.5841,539
13.5898,516
13.5955,643
13.6012,368
13.6069,477
13.6127,612
13.6184,393
13.6241,632
13.6298,456
13.6356,578
13.6413,571
13.647,686
13.6527,450
13.6584,511
13.6642,461
13.6699,638
13.6756,703
13.6813,487
13.687,584
13.6928,600
13.6985,545
13.7042,286
13.7099,616
13.7157,557
13.7214,538
13.7271,475
13.7328,645
13.7385,447
13.7443,605
13.75,556
13.7557,546
13.7614,610
13.7672,536
13.7729,501
13.7786,600
13.7843,771
13.79,538
13.7958,669
13.8015,404
13.8072,757
13.8129,531
13.8187,546
13.8244,671
13.8301,383
13.8358,790
13.8415,623
13.8473,612
13.853,502
13.8587,632
13.8644,706
13.8702,940
13.8759,552
13.8816,556
13.8873,719
13.893,365
13.8988,597
13.9045,711
13.9102,777
13.9159,754
13.9217,669
13.9274,620
13.9331,646
13.9388,666
13.9445,628
13.9503,598
13.956,732
13.9617,870
13.9674,739
13.9731,380
13.9789,860
13.9846,626
13.9903,593
13.996,864
14.0018,709
14.0075,663
14.0132,587
14.0189,644
14.0246,577
14.0304,646
14.0361,675
14.0418,735
14.0475,684
14.0533,698
14.059,843
14.0647,619
14.0704,863
14.0761,937
14.0819,690
14.0876,739
14.0933,780
14.099,787
14.1048,816
14.1105,812
14.1162,842
14.1219,666
14.1276,889
14.1334,865
14.1391,791
14.1448,811
14.1505,964
14.1563,953
14.162,1141
14.1677,947
14.1734,709
14.1791,759
14.1849,916
14.1906,782
14.1963,743
14.202,768
14.2077,773
14.2135,1538
14.2192,4066
14.2249,6942
14.2306,8795
14.2364,7853
14.2421,5775
14.2478,3283
14.2535,1833
14.2592,1646
14.265,1077
14.2707,891
14.2764,1256
14.2821,897
14.2879,695
14.2936,887
14.2993,801
14.305,863
14.3107,822
14.3165,773
14.3222,805
14.3279,912
14.3336,963
14.3394,802
14.3451,905
14.3508,1010
14.3565,1020
14.3622,997
14.368,804
14.3737,1405
14.3794,1248
14.3851,822
14.3909,981
14.3966,1009
14.4023,1059
14.408,978
14.4137,898
14.4195,1047
14.4252,948
14.4309,1052
14.4366,1047
14.4423,940
14.4481,1301
14.4538,898
14.4595,851
14.4652,1150
14.471,1180
14.4767,1191
14.4824,1016
14.4881,1233
14.4938,761
14.4996,1157
14.5053,954
14.511,983
14.5167,917
14.5225,1163
14.5282,1230
14.5339,989
14.5396,1151
14.5453,1076
14.5511,1520
14.5568,1070
14.5625,1093
14.5682,1348
14.574,1005
14.5797,1260
14.5854,932
14.5911,1042
14.5968,878
14.6026,1340
14.6083,1165
14.614,1230
14.6197,1028
14.6255,1259
14.6312,1054
14.6369,1294
14.6426,995
14.6483,889
14.6541,1407
14.6598,1169
14.6655,1109
14.6712,1095
14.677,1010
14.6827,1416
14.6884,962
14.6941,1298
14.6998,1534
14.7056,1346
14.7113,1400
14.717,1477
14.7227,1267
14.7284,1154
14.7342,1327
14.7399,1462
14.7456,1703
14.7513,1153
14.7571,1182
14.7628,1276
14.7685,1395
14.7742,1367
14.7799,1310
14.7857,1147
14.7914,1868
14.7971,1681
14.8028,1230
14.8086,1118
14.8143,1566
14.82,1443
14.8257,1401
14.8314,1049
14.8372,1527
14.8429,1536
14.8486,1185
14.8543,1321
14.8601,1418
14.8658,1308
14.8715,1650
14.8772,1521
14.8829,1304
14.8887,1372
14.8944,1268
14.9001,1548
14.9058,1780
14.9116,1374
14.9173,1310
14.923,1519
14.9287,1682
14.9344,1592
14.9402,1657
14.9459,1536
14.9516,1508
14.9573,1499
14.963,1593
14.9688,1545
14.9745,1557
14.9802,1756
14.9859,1621
14.9917,1623
14.9974,1555
15.0031,1762
15.0088,1442
15.0145,1419
15.0203,1913
15.026,1798
15.0317,1654
15.0374,1359
15.0432,1980
15.0489,2017
15.0546,1596
15.0603,1681
15.066,1466
15.0718,1849
15.0775,1762
15.0832,1718
15.0889,1815
15.0947,1937
15.1004,1818
15.1061,1513
15.1118,1799
15.1175,1609
15.1233,2141
15.129,1952
15.1347,1424
15.1404,2152
15.1462,1673
15.1519,1843
15.1576,1874
15.1633,1820
15.169,1870
15.1748,1994
15.1805,1880
15.1862,2491
15.1919,1788
15.1976,2118
15.2034,1782
15.2091,2194
15.2148,1912
15.2205,2255
15.2263,1737
15.232,2213
15.2377,2284
15.2434,2453
15.2491,2084
15.2549,2115
15.2606,1765
15.2663,2218
15.272,2244
15.2778,1935
15.2835,2275
15.2892,2191
15.2949,2170
15.3006,1873
15.3064,2254
15.3121,2099
15.3178,2038
15.3235,1952
15.3293,2335
15.335,2380
15.3407,1989
15.3464,2258
15.3521,2205
15.3579,2209
15.3636,1872
15.3693,2155
15.375,2149
15.3808,2142
15.3865,2363
15.3922,2322
15.3979,2499
15.4036,2475
15.4094,2615
15.4151,2614
15.4208,2532
15.4265,2114
15.4323,2169
15.438,2236
15.4437,2429
15.4494,2506
15.4551,2471
15.4609,2813
15.4666,2218
15.4723,2296
15.478,2384
15.4837,2292
15.4895,2527
15.4952,2111
15.5009,2393
15.5066,2591
15.5124,2534
15.5181,2625
15.5238,2676
15.5295,2860
15.5352,2228
15.541,2675
15.5467,2732
15.5524,2986
15.5581,2639
15.5639,3124
15.5696,3093
15.5753,2749
15.581,2995
15.5867,3134
15.5925,2778
15.5982,2415
15.6039,2632
15.6096,2779
15.6154,2912
15.6211,2835
15.6268,2844
15.6325,2772
15.6382,2978
15.644,2701
15.6497,2600
15.6554,2839
15.6611,2765
15.6669,3209
15.6726,2937
15.6783,3263
15.684,3497
15.6897,2643
15.6955,2805
15.7012,3148
15.7069,2666
15.7126,3363
15.7183,3624
15.7241,3041
15.7298,2929
15.7355,3798
15.7412,3367
15.747,3459
15.7527,3416
15.7584,3428
15.7641,3473
15.7698,3364
15.7756,3248
15.7813,3345
15.787,2668
15.7927,3454
15.7985,4054
15.8042,3536
15.8099,3209
15.8156,3198
15.8213,2955
15.8271,3028
15.8328,3040
15.8385,3319
15.8442,3377
15.85,3537
15.8557,2942
15.8614,3424
15.8671,3336
15.8728,3958
15.8786,3799
15.8843,3349
15.89,3244
15.8957,3447
15.9015,3741
15.9072,3569
15.9129,3412
15.9186,3557
15.9243,3455
15.9301,4282
15.9358,3855
15.9415,3761
15.9472,3943
15.9529,3752
15.9587,3407
15.9644,3420
15.9701,3502
15.9758,3697
15.9816,3948
15.9873,3841
15.993,4114
15.9987,3560
16.0044,3835
16.0102,4326
16.0159,4151
16.0216,3464
16.0273,4283
16.033,3801
16.0388,4160
16.0445,4062
16.0502,3986
16.0559,4471
16.0617,4125
16.0674,4305
16.0731,4164
16.0788,4244
16.0846,3646
16.0903,4059
16.096,3939
16.1017,3874
16.1074,4048
16.1132,4619
16.1189,4219
16.1246,4353
16.1303,4706
16.1361,4661
16.1418,5008
16.1475,4277
16.1532,4195
16.1589,4585
16.1647,5013
16.1704,4411
16.1761,4416
16.1818,4156
16.1876,4276
16.1933,4577
16.199,5134
16.2047,3943
16.2104,4765
16.2161,4622
16.2219,4464
16.2276,4907
16.2333,4374
16.239,4319
16.2448,4562
16.2505,4904
16.2562,4781
16.2619,4566
16.2677,4577
16.2734,4675
16.2791,4794
16.2848,5369
16.2905,5175
16.2963,4397
16.302,4849
16.3077,4833
16.3134,4849
16.3192,5198
16.3249,4957
16.3306,5209
16.3363,4558
16.342,5561
16.3478,4216
16.3535,5631
16.3592,5044
16.3649,5151
16.3707,5156
16.3764,5512
16.3821,5203
16.3878,4861
16.3935,4652
16.3992,5576
16.405,4802
16.4107,4999
16.4164,4701
16.4221,5548
16.4279,5141
16.4336,5185
16.4393,5510
16.445,5848
16.4507,5515
16.4565,5962
16.4622,5417
16.4679,5887
16.4736,4876
16.4794,5389
16.4851,5171
16.4908,5225
16.4965,5602
16.5023,5842
16.508,5284
16.5137,5615
16.5194,6022
16.5251,6278
16.5309,6144
16.5366,6083
16.5423,5886
16.548,6424
16.5538,5390
16.5595,5997
16.5652,5811
16.5709,6339
16.5766,5678
16.5824,5978
16.5881,5567
16.5938,6134
16.5995,6061
16.6053,6323
16.611,5745
16.6167,5780
16.6224,5963
16.6281,6510
16.6338,6292
16.6396,6073
16.6453,6343
16.651,6699
16.6567,6341
16.6625,6837
16.6682,6451
16.6739,6391
16.6796,6206
16.6854,6443
16.6911,6542
16.6968,6325
16.7025,6221
16.7082,6528
16.714,7088
16.7197,6567
16.7254,6204
16.7311,6628
16.7369,6837
16.7426,6869
16.7483,7089
16.754,7150
16.7597,6762
16.7655,6435
16.7712,6915
16.7769,7092
16.7826,6752
16.7884,6252
16.7941,6889
16.7998,7601
16.8055,7016
16.8112,7246
16.817,7635
16.8227,7144
16.8284,7191
16.8341,7387
16.8398,7443
16.8456,6577
16.8513,6992
16.857,6999
16.8627,6991
16.8684,7297
16.8742,7302
16.8799,7058
16.8856,8004
16.8913,6940
16.8971,7940
16.9028,8305
16.9085,7272
16.9142,8204
16.92,8004
16.9257,8042
16.9314,7420
16.9371,6928
16.9429,7538
16.9486,7752
16.9543,8391
16.96,7997
16.9657,8826
16.9715,7669
16.9772,8035
16.9829,8066
16.9886,7499
16.9943,8204
17.0001,8014
17.0058,8033
17.0115,7971
17.0172,8038
17.023,8079
17.0287,8230
17.0344,8519
17.0401,8151
17.0458,8541
17.0516,9106
17.0573,8292
17.063,7967
17.0687,8694
17.0744,8324
17.0802,8328
17.0859,8998
17.0916,9191
17.0973,8939
17.1031,8925
17.1088,9056
17.1145,8484
17.1202,8830
17.126,8593
17.1317,8819
17.1374,9343
17.1431,8411
17.1488,8970
17.1546,8248
17.1603,8609
17.166,9260
17.1717,9540
17.1775,9025
17.1832,9819
17.1889,9065
17.1946,9252
17.2003,9379
17.2061,8933
17.2118,8916
17.2175,8512
17.2232,8743
17.2289,9167
17.2347,9393
17.2404,9024
17.2461,9577
17.2518,9576
17.2575,10491
17.2633,9741
17.269,10006
17.2747,9956
17.2804,9876
17.2862,9521
17.2919,9353
17.2976,9676
17.3033,9685
17.309,10302
17.3148,10385
17.3205,9228
17.3262,9798
17.3319,10190
17.3377,10058
17.3434,9657
17.3491,10898
17.3548,9623
17.3606,10907
17.3663,10344
17.372,9897
17.3777,10329
17.3834,10986
17.3892,10504
17.3949,9867
17.4006,10011
17.4063,11026
17.4121,9966
17.4178,11090
17.4235,10692
17.4292,10751
17.4349,10105
17.4407,10965
17.4464,11136
17.4521,11328
17.4578,10601
17.4636,10627
17.4693,11321
17.475,11002
17.4807,11771
17.4864,10649
17.4922,10862
17.4979,11144
17.5036,11788
17.5093,11374
17.515,10787
17.5208,11179
17.5265,11146
17.5322,11503
17.5379,12177
17.5437,11625
17.5494,11023
17.5551,11239
17.5608,12032
17.5665,11650
17.5723,11539
17.578,12382
17.5837,11711
17.5894,12261
17.5952,11796
17.6009,12090
17.6066,12412
17.6123,11813
17.618,12007
17.6238,11984
17.6295,12125
17.6352,12226
17.6409,12497
17.6467,11235
17.6524,12014
17.6581,11954
17.6638,12785
17.6695,13246
17.6753,12522
17.681,11952
17.6867,12913
17.6924,12090
17.6982,12402
17.7039,13556
17.7096,12521
17.7153,12702
17.721,12683
17.7267,12728
17.7325,12805
17.7382,12615
17.7439,13281
17.7496,13196
17.7554,13358
17.7611,13252
17.7668,13438
17.7725,13338
17.7783,13444
17.784,12540
17.7897,13292
17.7954,13656
17.8011,13294
17.8069,13689
17.8126,13217
17.8183,13623
17.824,14177
17.8298,13909
17.8355,13912
17.8412,13949
17.8469,13480
17.8526,13515
17.8584,13577
17.8641,14254
17.8698,14569
17.8755,14244
17.8813,14169
17.887,14707
17.8927,13326
17.8984,13343
17.9041,14011
17.9099,13820
17.9156,14364
17.9213,14274
17.927,15008
17.9328,14150
17.9385,14313
17.9442,15564
17.9499,14026
17.9556,15344
17.9613,14345
17.9671,14475
17.9728,14997
17.9785,14762
17.9842,14878
17.99,15191
17.9957,15415
18.0014,14945
18.0071,14886
18.0129,15370
18.0186,14775
18.0243,15208
18.03,14637
18.0357,15619
18.0415,14993
18.0472,14822
18.0529,14683
18.0586,15652
18.0644,15077
18.0701,14753
18.0758,15772
18.0815,15684
18.0872,15550
18.093,16520
18.0987,16919
18.1044,16483
18.1101,16511
18.1159,16155
18.1216,15165
18.1273,16136
18.133,16593
18.1387,16074
18.1445,16351
18.1502,16657
18.1559,15845
18.1616,16952
18.1674,16744
18.1731,16625
18.1788,16503
18.1845,16883
18.1902,16374
18.196,17439
18.2017,15999
18.2074,17071
18.2131,17767
18.2189,17255
18.2246,17051
18.2303,16082
18.236,16605
18.2417,17024
18.2475,16870
18.2532,16748
18.2589,17322
18.2646,16837
18.2703,17738
18.2761,17678
18.2818,17476
18.2875,17648
18.2932,16166
18.299,16715
18.3047,18193
18.3104,17229
18.3161,16625
18.3218,17941
18.3276,17553
18.3333,17609
18.339,18637
18.3447,17794
18.3505,17808
18.3562,18174
18.3619,17086
18.3676,19429
18.3733,18452
18.379,18782
18.3848,17778
18.3905,18247
18.3962,17432
18.4019,18326
18.4077,18537
18.4134,19172
18.4191,18771
18.4248,20070
18.4306,18431
18.4363,19344
18.442,18158
18.4477,18467
18.4535,19094
18.4592,19185
18.4649,19044
18.4706,18503
18.4763,19114
18.4821,20331
18.4878,19320
18.4935,19435
18.4992,19155
18.5049,19636
18.5107,18454
18.5164,19204
18.5221,20040
18.5278,18981
18.5336,19488
18.5393,18990
18.545,19774
18.5507,20203
18.5564,19286
18.5622,19405
18.5679,19636
18.5736,19269
18.5793,19387
18.5851,21007
18.5908,20516
18.5965,19093
18.6022,21152
18.6079,20111
18.6137,19730
18.6194,20347
18.6251,20649
18.6308,19722
18.6366,20621
18.6423,20405
18.648,20971
18.6537,20755
18.6594,20472
18.6652,20837
18.6709,19515
18.6766,20688
18.6823,20331
18.6881,20573
18.6938,20834
18.6995,20503
18.7052,19851
18.7109,20837
18.7167,20933
18.7224,21268
18.7281,20341
18.7338,20821
18.7395,20740
18.7453,19447
18.751,20849
18.7567,20902
18.7624,20991
18.7682,21751
18.7739,20840
18.7796,22113
18.7853,21819
18.791,21868
18.7968,21181
18.8025,22052
18.8082,21838
18.8139,21575
18.8196,21783
18.8254,20937
18.8311,20974
18.8368,21258
18.8425,20939
18.8483,22465
18.854,20910
18.8597,21317
18.8654,20837
18.8712,21995
18.8769,22635
18.8826,21849
18.8883,22095
18.894,22623
18.8998,22550
18.9055,21567
18.9112,23115
18.9169,22565
18.9227,21775
18.9284,23018
18.9341,22879
18.9398,22825
18.9455,21528
18.9513,23030
18.957,22830
18.9627,22378
18.9684,22688
18.9742,22947
18.9799,22208
18.9856,21624
18.9913,22736
18.997,23781
19.0028,23187
19.0085,22173
19.0142,22301
19.0199,22743
19.0256,22721
19.0314,23194
19.0371,22986
19.0428,22473
19.0485,21925
19.0543,24168
19.06,21858
19.0657,22799
19.0714,24095
19.0771,22162
19.0829,23018
19.0886,23321
19.0943,23429
19.1,22850
19.1058,22721
19.1115,24558
19.1172,22508
19.1229,23377
19.1286,23411
19.1344,23917
19.1401,24400
19.1458,23400
19.1515,23700
19.1573,22699
19.163,23152
19.1687,23437
19.1744,23507
19.1801,23545
19.1859,23461
19.1916,23631
19.1973,22599
19.203,23553
19.2088,23897
19.2145,23227
19.2202,23084
19.2259,24185
19.2316,23848
19.2373,24330
19.2431,24069
19.2488,22601
19.2545,24914
19.2602,24228
19.266,23062
19.2717,23926
19.2774,23920
19.2831,23622
19.2889,23425
19.2946,23451
19.3003,22238
19.306,23508
19.3117,23574
19.3175,23105
19.3232,24018
19.3289,24239
19.3346,23903
19.3404,24159
19.3461,23333
19.3518,24639
19.3575,23864
19.3632,24312
19.369,23671
19.3747,24432
19.3804,24363
19.3861,24018
19.3919,24623
19.3976,23036
19.4033,23732
19.409,24774
19.4147,24461
19.4205,23486
19.4262,23779
19.4319,24048
19.4376,24839
19.4434,23284
19.4491,23811
19.4548,23669
19.4605,23640
19.4662,23985
19.472,24296
19.4777,23382
19.4834,23554
19.4891,24344
19.4948,23707
19.5006,23729
19.5063,24068
19.512,24515
19.5177,25543
19.5235,24003
19.5292,24328
19.5349,23708
19.5406,23989
19.5463,22971
19.5521,23867
19.5578,23612
19.5635,23317
19.5692,23070
19.575,23813
19.5807,24405
19.5864,24476
19.5921,23786
19.5978,24210
19.6036,25054
19.6093,23211
19.615,24818
19.6207,23400
19.6265,24396
19.6322,24196
19.6379,23958
19.6436,24273
19.6493,22879
19.655,23473
19.6608,24482
19.6665,23893
19.6722,23735
19.678,23016
19.6837,24054
19.6894,23734
19.6951,23418
19.7008,24623
19.7066,23785
19.7123,25826
19.718,24837
19.7237,24618
19.7295,23371
19.7352,24332
19.7409,24239
19.7466,23189
19.7523,23651
19.7581,23721
19.7638,24048
19.7695,23577
19.7752,23918
19.7809,24409
19.7867,23493
19.7924,23414
19.7981,23682
19.8038,24437
19.8096,24502
19.8153,23733
19.821,25130
19.8267,24528
19.8324,24458
19.8382,25280
19.8439,25018
19.8496,23939
19.8553,25424
19.8611,24523
19.8668,24286
19.8725,23919
19.8782,23683
19.8839,23434
19.8897,24544
19.8954,24046
19.9011,24608
19.9068,24445
19.9126,24677
19.9183,24041
19.924,23689
19.9297,24095
19.9354,24193
19.9412,23517
19.9469,24519
19.9526,24699
19.9583,24436
19.9641,24852
19.9698,24597
19.9755,23708
19.9812,24803
19.9869,22986
19.9927,24287
19.9984,23446
20.0041,24189
20.0098,22971
20.0155,24629
20.0213,24355
20.027,23707
20.0327,23707
20.0384,22749
20.0442,24490
20.0499,24315
20.0556,24101
20.0613,24128
20.067,22908
20.0728,24550
20.0785,24770
20.0842,23556
20.0899,24541
20.0957,23791
20.1014,25167
20.1071,24027
20.1128,24706
20.1185,23773
20.1243,23644
20.13,23842
20.1357,24076
20.1414,24938
20.1472,21915
20.1529,25015
20.1586,23752
20.1643,23348
20.17,24684
20.1758,24460
20.1815,25176
20.1872,25303
20.1929,23638
20.1987,23284
20.2044,23844
20.2101,23359
20.2158,24836
20.2215,24118
20.2273,24162
20.233,24492
20.2387,24789
20.2444,23813
20.2501,24359
20.2559,24595
20.2616,24602
20.2673,23452
20.273,24339
20.2788,23679
20.2845,23926
20.2902,24290
20.2959,24317
20.3016,23923
20.3074,23812
20.3131,23531
20.3188,23015
20.3245,23653
20.3302,23904
20.336,24008
20.3417,24421
20.3474,25138
20.3531,23323
20.3589,22772
20.3646,23479
20.3703,23291
20.376,24247
20.3818,23604
20.3875,25080
20.3932,24872
20.3989,25137
20.4046,23967
20.4104,22863
20.4161,23832
20.4218,24574
20.4275,25262
20.4333,24750
20.439,24220
20.4447,24121
20.4504,24597
20.4561,23137
20.4619,24233
20.4676,24525
20.4733,23670
20.479,23808
20.4848,24570
20.4905,24844
20.4962,24487
20.5019,23403
20.5076,23693
20.5134,22571
20.5191,23577
20.5248,24683
20.5305,24790
20.5362,24823
20.542,24664
20.5477,24389
20.5534,23256
20.5591,23113
20.5649,24696
20.5706,24278
20.5763,24478
20.582,24088
20.5877,23536
20.5935,24240
20.5992,23715
20.6049,24088
20.6106,23200
20.6164,24495
20.6221,23556
20.6278,24376
20.6335,24541
20.6392,23878
20.645,24395
20.6507,24793
20.6564,24740
20.6621,24993
20.6679,24287
20.6736,23823
20.6793,25183
20.685,23818
20.6907,23941
20.6965,25524
20.7022,25168
20.7079,24608
20.7136,24323
20.7194,23099
20.7251,24154
20.7308,24536
20.7365,24347
20.7422,24831
20.7479,25314
20.7537,25485
20.7594,24269
20.7651,23213
20.7708,24058
20.7766,24901
20.7823,23771
20.788,24549
20.7937,25276
20.7995,25465
20.8052,23914
20.8109,23314
20.8166,24762
20.8223,23421
20.8281,23795
20.8338,24144
20.8395,24178
20.8452,23895
20.851,23762
20.8567,24427
20.8624,24641
20.8681,24157
20.8738,24378
20.8796,23999
20.8853,24728
20.891,25443
20.8967,24083
20.9025,24601
20.9082,25491
20.9139,24598
20.9196,23264
20.9253,24900
20.9311,25467
20.9368,25339
20.9425,24161
20.9482,23652
20.954,23687
20.9597,23432
20.9654,23458
20.9711,24742
20.9768,23800
20.9826,24538
20.9883,24488
20.994,23832
20.9997,25404
21.0055,24127
21.0112,24573
21.0169,24273
21.0226,24727
21.0283,23518
21.0341,23810
21.0398,24236
21.0455,24385
21.0512,24457
21.0569,24565
21.0627,24125
21.0684,24903
21.0741,25641
21.0798,25251
21.0856,23807
21.0913,24803
21.097,24947
21.1027,24579
21.1084,25535
21.1142,24871
21.1199,24513
21.1256,24283
21.1313,24010
21.1371,25034
21.1428,24319
21.1485,24639
21.1542,25032
21.1599,25664
21.1656,23981
21.1714,24527
21.1771,23629
21.1828,25176
21.1885,25581
21.1943,22908
21.2,25265
21.2057,24342
21.2114,23497
21.2172,24885
21.2229,24342
21.2286,24456
21.2343,25501
21.2401,24084
21.2458,24105
21.2515,23854
21.2572,24753
21.2629,25393
21.2687,24688
21.2744,25276
21.2801,23742
21.2858,24646
21.2915,24385
21.2973,24500
21.303,24577
21.3087,24167
21.3144,25258
21.3202,24752
21.3259,24409
21.3316,24818
21.3373,23431
21.343,24308
21.3488,24082
21.3545,23654
21.3602,24132
21.3659,23578
21.3717,24015
21.3774,24675
21.3831,24439
21.3888,23885
21.3945,25032
21.4003,25066
21.406,24548
21.4117,24545
21.4174,24594
21.4232,24356
21.4289,23955
21.4346,24072
21.4403,24176
21.446,24026
21.4518,23938
21.4575,24988
21.4632,23912
21.4689,24674
21.4747,24511
21.4804,25347
21.4861,25474
21.4918,23712
21.4975,23202
21.5033,23560
21.509,24150
21.5147,25150
21.5204,23592
21.5261,23318
21.5319,22988
21.5376,24848
21.5433,22341
21.549,24071
21.5548,24534
21.5605,24213
21.5662,25218
21.5719,24218
21.5776,24265
21.5834,24618
21.5891,25134
21.5948,23516
21.6005,23816
21.6062,24663
21.612,24968
21.6177,24618
21.6234,23781
21.6291,23821
21.6349,24447
21.6406,23855
21.6463,24458
21.652,24478
21.6578,24794
21.6635,24023
21.6692,23915
21.6749,24187
21.6806,24402
21.6864,24284
21.6921,24718
21.6978,24729
21.7035,22476
21.7093,24664
21.715,25298
21.7207,24771
21.7264,24492
21.7321,24467
21.7379,26199
21.7436,24625
21.7493,24749
21.755,23647
21.7608,24529
21.7665,23857
21.7722,25052
21.7779,24963
21.7836,24267
21.7894,23809
21.7951,24886
21.8008,25196
21.8065,24714
21.8122,24140
21.818,23940
21.8237,23627
21.8294,24100
21.8351,24517
21.8409,25589
21.8466,24718
21.8523,24716
21.858,25409
21.8637,24274
21.8695,24643
21.8752,23891
21.8809,26072
21.8866,23053
21.8924,23680
21.8981,24094
21.9038,25244
21.9095,25361
21.9152,24889
21.921,24705
21.9267,24267
21.9324,24152
21.9381,24524
21.9439,24737
21.9496,24481
21.9553,23826
21.961,24349
21.9667,24230
21.9725,23867
21.9782,24584
21.9839,24897
21.9896,25254
21.9954,24756
22.0011,25487
22.0068,24595
22.0125,24659
22.0182,24361
22.024,23600
22.0297,24176
22.0354,25170
22.0411,24911
22.0468,25058
22.0526,24374
22.0583,24694
22.064,25881
22.0697,24913
22.0755,23395
22.0812,24618
22.0869,23516
22.0926,23680
22.0983,23968
22.1041,24054
22.1098,24667
22.1155,24020
22.1212,24286
22.127,24798
22.1327,24557
22.1384,24557
22.1441,24452
22.1498,24361
22.1556,25235
22.1613,24248
22.167,24460
22.1727,24883
22.1785,23991
22.1842,24173
22.1899,23910
22.1956,23832
22.2013,23182
22.2071,24636
22.2128,24168
22.2185,23886
22.2242,24386
22.23,25034
22.2357,23818
22.2414,24290
22.2471,25072
22.2528,24299
22.2586,24107
22.2643,23224
22.27,25035
22.2757,23515
22.2814,24861
22.2872,24326
22.2929,24600
22.2986,23465
22.3043,24705
22.3101,24193
22.3158,23834
22.3215,25138
22.3272,24728
22.3329,24162
22.3387,23815
22.3444,25005
22.3501,24857
22.3558,23363
22.3616,24724
22.3673,23686
22.373,25288
22.3787,24128
22.3844,25452
22.3902,25509
22.3959,24401
22.4016,23276
22.4073,24153
22.4131,24786
22.4188,23608
22.4245,25406
22.4302,24664
22.4359,24650
22.4417,24942
22.4474,24635
22.4531,24420
22.4588,25568
22.4646,24054
22.4703,24722
22.476,24171
22.4817,24081
22.4874,23929
22.4932,24713
