C:\MSDCHEM\1\DATA\MANDKHAI\20180626 MTH_C12COA\SLR_WT_NltAB_old_2.d 27 Jun 18  12:05 pm
Start of data points
5.09263,209
5.09837,373
5.10408,416
5.1098,159
5.11552,436
5.12125,165
5.12697,245
5.13268,0
5.13842,340
5.14413,160
5.14985,250
5.15558,200
5.1613,0
5.16702,180
5.17275,350
5.17847,0
5.18418,315
5.18992,212
5.19563,188
5.20135,178
5.20708,167
5.2128,180
5.21852,0
5.22425,150
5.22997,213
5.23568,0
5.2414,160
5.24713,0
5.25285,159
5.25857,0
5.2643,0
5.27002,178
5.27573,157
5.28147,194
5.28718,0
5.2929,191
5.29863,0
5.30435,573
5.31007,1214
5.3158,2122
5.32152,2718
5.32723,3093
5.33297,3225
5.33868,2803
5.3444,2648
5.35013,2718
5.35585,2053
5.36157,2557
5.3673,2102
5.37302,2243
5.37873,2362
5.38445,2305
5.39018,1967
5.3959,1817
5.40162,1505
5.40735,1588
5.41307,1511
5.41878,1581
5.42452,1300
5.43023,1210
5.43595,1296
5.44168,1270
5.4474,1070
5.45312,1062
5.45885,955
5.46457,820
5.47028,879
5.47602,990
5.48173,523
5.48745,770
5.49318,668
5.4989,858
5.50462,672
5.51033,455
5.51607,742
5.52178,408
5.5275,574
5.53323,440
5.53895,375
5.54467,240
5.5504,390
5.55612,479
5.56183,709
5.56757,379
5.57328,202
5.579,253
5.58473,337
5.59045,516
5.59617,377
5.6019,0
5.60762,378
5.61333,0
5.61907,0
5.62478,370
5.6305,194
5.63622,171
5.64195,172
5.64767,158
5.65338,302
5.65912,0
5.66483,171
5.67055,165
5.67628,0
5.682,158
5.68772,0
5.69345,213
5.69917,220
5.70488,173
5.71062,0
5.71633,384
5.72205,190
5.72778,163
5.7335,217
5.73922,0
5.74495,157
5.75067,150
5.75638,0
5.7621,261
5.76783,0
5.77355,0
5.77927,0
5.785,0
5.79072,0
5.79643,171
5.80217,157
5.80788,0
5.8136,164
5.81933,0
5.82505,179
5.83077,177
5.8365,206
5.84222,0
5.84793,0
5.85367,0
5.85938,0
5.8651,0
5.87083,175
5.87655,0
5.88227,166
5.88798,0
5.89372,0
5.89943,0
5.90515,165
5.91088,0
5.9166,167
5.92232,0
5.92805,162
5.93377,0
5.93948,0
5.94522,0
5.95093,0
5.95665,161
5.96238,0
5.9681,0
5.97382,0
5.97955,174
5.98527,154
5.99098,0
5.99672,0
6.00243,0
6.00815,0
6.01387,151
6.0196,204
6.02532,163
6.03103,0
6.03677,0
6.04248,176
6.0482,164
6.05393,0
6.05965,0
6.06537,0
6.0711,0
6.07682,0
6.08253,0
6.08827,0
6.09398,0
6.0997,0
6.10543,0
6.11115,0
6.11687,165
6.1226,0
6.12832,0
6.13403,0
6.13975,0
6.14548,153
6.1512,0
6.15692,0
6.16265,0
6.16837,178
6.17408,0
6.17982,0
6.18553,0
6.19125,156
6.19698,0
6.2027,0
6.20842,0
6.21415,0
6.21987,0
6.22558,0
6.23132,0
6.23703,0
6.24275,177
6.24848,0
6.2542,0
6.25992,0
6.26563,0
6.27137,150
6.27708,0
6.2828,190
6.28853,0
6.29425,0
6.29997,0
6.3057,0
6.31142,0
6.31713,0
6.32287,0
6.32858,0
6.3343,0
6.34003,0
6.34575,0
6.35147,0
6.3572,0
6.36292,0
6.36863,0
6.37437,0
6.38008,0
6.3858,0
6.39152,165
6.39725,0
6.40297,0
6.40868,0
6.41442,0
6.42013,0
6.42585,0
6.43158,0
6.4373,0
6.44302,0
6.44875,0
6.45447,0
6.46018,0
6.46592,0
6.47163,0
6.47735,0
6.48308,0
6.4888,0
6.49452,0
6.50025,183
6.50597,0
6.51168,0
6.5174,0
6.52313,0
6.52885,231
6.53457,409
6.5403,499
6.54602,719
6.55173,172
6.55747,370
6.56318,406
6.5689,170
6.57463,0
6.58035,155
6.58607,0
6.5918,0
6.59752,155
6.60323,182
6.60897,0
6.61468,0
6.6204,0
6.62613,0
6.63185,0
6.63757,0
6.64328,0
6.64902,0
6.65473,0
6.66045,0
6.66618,0
6.6719,0
6.67762,0
6.68335,0
6.68907,0
6.69478,0
6.70052,0
6.70623,0
6.71195,0
6.71768,0
6.7234,169
6.72912,156
6.73485,0
6.74057,177
6.74628,175
6.75202,252
6.75773,0
6.76345,215
6.76917,183
6.7749,0
6.78062,0
6.78633,182
6.79207,201
6.79778,154
6.8035,168
6.80923,204
6.81495,0
6.82067,155
6.8264,0
6.83212,0
6.83783,0
6.84357,0
6.84928,0
6.855,0
6.86073,0
6.86645,0
6.87217,0
6.8779,0
6.88362,0
6.88933,0
6.89505,0
6.90078,0
6.9065,0
6.91222,0
6.91795,0
6.92367,0
6.92938,0
6.93512,0
6.94083,0
6.94655,0
6.95228,0
6.958,0
6.96372,0
6.96945,0
6.97517,0
6.98088,0
6.98662,0
6.99233,154
6.99805,0
7.00378,0
7.0095,0
7.01522,0
7.02093,0
7.02667,0
7.03238,0
7.0381,0
7.04383,0
7.04955,0
7.05527,0
7.061,0
7.06672,0
7.07243,0
7.07817,0
7.08388,0
7.0896,0
7.09533,0
7.10105,0
7.10677,0
7.1125,188
7.11822,0
7.12393,0
7.12967,190
7.13538,0
7.1411,0
7.14682,284
7.15255,0
7.15827,0
7.16398,0
7.16972,0
7.17543,0
7.18115,0
7.18688,0
7.1926,0
7.19832,0
7.20405,0
7.20977,0
7.21548,0
7.22122,0
7.22693,0
7.23265,0
7.23838,0
7.2441,0
7.24982,0
7.25555,0
7.26127,0
7.26698,0
7.2727,175
7.27843,0
7.28415,0
7.28987,0
7.2956,0
7.30132,0
7.30703,0
7.31277,0
7.31848,0
7.3242,0
7.32993,0
7.33565,0
7.34137,0
7.3471,0
7.35282,0
7.35853,0
7.36427,0
7.36998,0
7.3757,0
7.38143,0
7.38715,0
7.39287,0
7.39858,0
7.40432,0
7.41003,0
7.41575,0
7.42148,0
7.4272,0
7.43292,0
7.43865,0
7.44437,0
7.45008,0
7.45582,0
7.46153,0
7.46725,0
7.47298,0
7.4787,0
7.48442,0
7.49015,0
7.49587,0
7.50158,0
7.50732,0
7.51303,0
7.51875,0
7.52447,0
7.5302,0
7.53592,0
7.54163,0
7.54737,0
7.55308,0
7.5588,0
7.56453,0
7.57025,0
7.57597,0
7.5817,170
7.58742,0
7.59313,0
7.59887,0
7.60458,0
7.6103,163
7.61603,0
7.62175,0
7.62747,0
7.6332,0
7.63892,0
7.64463,0
7.65035,0
7.65608,0
7.6618,0
7.66752,0
7.67325,0
7.67897,0
7.68468,0
7.69042,0
7.69613,0
7.70185,0
7.70758,0
7.7133,0
7.71902,0
7.72475,0
7.73047,0
7.73618,0
7.74192,0
7.74763,0
7.75335,0
7.75908,0
7.7648,0
7.77052,0
7.77623,0
7.78197,0
7.78768,0
7.7934,0
7.79913,0
7.80485,0
7.81057,0
7.8163,0
7.82202,0
7.82773,0
7.83347,0
7.83918,0
7.8449,0
7.85063,0
7.85635,0
7.86207,0
7.8678,0
7.87352,0
7.87923,0
7.88497,0
7.89068,0
7.8964,0
7.90212,0
7.90785,0
7.91357,0
7.91928,0
7.92502,0
7.93073,0
7.93645,0
7.94218,0
7.9479,0
7.95362,0
7.95935,0
7.96507,0
7.97078,0
7.97652,0
7.98223,0
7.98795,0
7.99368,0
7.9994,0
8.00512,0
8.01085,0
8.01657,0
8.02228,0
8.028,0
8.03373,0
8.03945,0
8.04517,0
8.0509,0
8.05662,0
8.06233,0
8.06807,0
8.07378,0
8.0795,0
8.08523,0
8.09095,0
8.09667,0
8.1024,0
8.10812,168
8.11383,0
8.11957,0
8.12528,0
8.131,0
8.13673,0
8.14245,0
8.14817,0
8.15388,0
8.15962,0
8.16533,0
8.17105,0
8.17678,0
8.1825,0
8.18822,0
8.19395,0
8.19967,0
8.20538,0
8.21112,0
8.21683,0
8.22255,0
8.22828,0
8.234,0
8.23972,0
8.24545,0
8.25117,0
8.25688,0
8.26262,0
8.26833,0
8.27405,0
8.27977,0
8.2855,0
8.29122,253
8.29693,235
8.30267,269
8.30838,283
8.3141,189
8.31983,0
8.32555,175
8.33127,0
8.337,0
8.34272,0
8.34843,0
8.35417,0
8.35988,0
8.3656,0
8.37133,0
8.37705,0
8.38277,0
8.3885,0
8.39422,0
8.39993,0
8.40565,0
8.41138,0
8.4171,0
8.42282,0
8.42855,0
8.43427,0
8.43998,0
8.44572,0
8.45143,0
8.45715,0
8.46288,0
8.4686,0
8.47432,176
8.48005,0
8.48577,285
8.49148,0
8.49722,0
8.50293,0
8.50865,0
8.51438,0
8.5201,0
8.52582,0
8.53153,0
8.53727,0
8.54298,0
8.5487,0
8.55443,0
8.56015,0
8.56587,0
8.5716,0
8.57732,0
8.58303,0
8.58877,0
8.59448,0
8.6002,0
8.60593,0
8.61165,0
8.61737,0
8.6231,0
8.62882,0
8.63453,0
8.64027,0
8.64598,0
8.6517,0
8.65742,0
8.66315,0
8.66887,152
8.67458,0
8.68032,0
8.68603,0
8.69175,0
8.69748,0
8.7032,0
8.70892,0
8.71465,0
8.72037,0
8.72608,0
8.73182,0
8.73753,0
8.74325,0
8.74898,0
8.7547,0
8.76042,185
8.76615,0
8.77187,0
8.77758,0
8.7833,0
8.78903,0
8.79475,0
8.80047,0
8.8062,0
8.81192,0
8.81763,0
8.82337,0
8.82908,0
8.8348,0
8.84053,0
8.84625,0
8.85197,0
8.8577,0
8.86342,0
8.86913,0
8.87487,0
8.88058,0
8.8863,0
8.89203,0
8.89775,0
8.90347,0
8.9092,0
8.91492,0
8.92063,0
8.92635,0
8.93208,0
8.9378,0
8.94352,0
8.94925,0
8.95497,0
8.96068,0
8.96642,0
8.97213,0
8.97785,0
8.98358,0
8.9893,0
8.99502,0
9.00075,0
9.00647,0
9.01218,0
9.01792,0
9.02363,0
9.02935,0
9.03508,0
9.0408,0
9.04652,0
9.05223,0
9.05797,0
9.06368,0
9.0694,0
9.07513,0
9.08085,0
9.08657,0
9.0923,0
9.09802,158
9.10373,0
9.10947,0
9.11518,0
9.1209,0
9.12663,0
9.13235,0
9.13807,0
9.1438,0
9.14952,0
9.15523,0
9.16097,0
9.16668,0
9.1724,0
9.17812,0
9.18385,0
9.18957,0
9.19528,0
9.20102,0
9.20673,0
9.21245,0
9.21818,0
9.2239,0
9.22962,0
9.23535,0
9.24107,0
9.24678,0
9.25252,0
9.25823,0
9.26395,0
9.26968,0
9.2754,0
9.28112,0
9.28685,0
9.29257,0
9.29828,0
9.304,0
9.30973,0
9.31545,0
9.32117,0
9.3269,0
9.33262,0
9.33833,0
9.34407,0
9.34978,0
9.3555,0
9.36123,0
9.36695,0
9.37267,0
9.3784,0
9.38412,0
9.38983,0
9.39557,0
9.40128,0
9.407,0
9.41273,0
9.41845,0
9.42417,0
9.42988,0
9.43562,0
9.44133,0
9.44705,0
9.45278,0
9.4585,0
9.46422,0
9.46995,0
9.47567,0
9.48138,0
9.48712,0
9.49283,0
9.49855,0
9.50428,0
9.51,0
9.51572,0
9.52145,0
9.52717,0
9.53288,0
9.53862,0
9.54433,0
9.55005,0
9.55577,0
9.5615,0
9.56722,0
9.57293,0
9.57867,0
9.58438,0
9.5901,0
9.59583,0
9.60155,0
9.60727,0
9.613,0
9.61872,0
9.62443,0
9.63017,0
9.63588,0
9.6416,0
9.64733,0
9.65305,0
9.65877,0
9.6645,0
9.67022,0
9.67593,0
9.68165,0
9.68738,0
9.6931,0
9.69882,0
9.70455,0
9.71027,0
9.71598,0
9.72172,0
9.72743,0
9.73315,0
9.73888,0
9.7446,0
9.75032,0
9.75605,0
9.76177,0
9.76748,0
9.77322,0
9.77893,0
9.78465,0
9.79038,0
9.7961,0
9.80182,0
9.80753,0
9.81327,0
9.81898,0
9.8247,0
9.83043,0
9.83615,0
9.84187,0
9.8476,0
9.85332,0
9.85903,0
9.86477,0
9.87048,0
9.8762,0
9.88193,0
9.88765,0
9.89337,0
9.8991,0
9.90482,0
9.91053,0
9.91627,0
9.92198,0
9.9277,0
9.93342,0
9.93915,0
9.94487,0
9.95058,0
9.95632,0
9.96203,0
9.96775,0
9.97348,0
9.9792,0
9.98492,0
9.99065,0
9.99637,0
10.0021,0
10.0078,0
10.0135,202
10.0193,0
10.025,0
10.0307,0
10.0364,0
10.0422,0
10.0479,0
10.0536,0
10.0593,0
10.065,0
10.0708,0
10.0765,157
10.0822,0
10.0879,0
10.0936,0
10.0994,0
10.1051,0
10.1108,0
10.1165,0
10.1223,0
10.128,0
10.1337,0
10.1394,0
10.1451,0
10.1509,0
10.1566,0
10.1623,0
10.168,0
10.1738,0
10.1795,0
10.1852,0
10.1909,0
10.1966,0
10.2024,0
10.2081,0
10.2138,0
10.2195,0
10.2253,0
10.231,0
10.2367,0
10.2424,0
10.2481,0
10.2539,0
10.2596,0
10.2653,0
10.271,0
10.2768,0
10.2825,0
10.2882,0
10.2939,0
10.2996,0
10.3054,0
10.3111,0
10.3168,0
10.3225,0
10.3282,0
10.334,0
10.3397,0
10.3454,0
10.3511,0
10.3569,153
10.3626,0
10.3683,0
10.374,0
10.3797,0
10.3855,153
10.3912,0
10.3969,0
10.4026,0
10.4084,0
10.4141,0
10.4198,0
10.4255,0
10.4312,0
10.437,155
10.4427,0
10.4484,0
10.4541,0
10.4599,0
10.4656,0
10.4713,0
10.477,0
10.4827,0
10.4885,0
10.4942,0
10.4999,0
10.5056,0
10.5114,0
10.5171,0
10.5228,0
10.5285,0
10.5342,0
10.54,0
10.5457,0
10.5514,0
10.5571,0
10.5628,0
10.5686,0
10.5743,0
10.58,0
10.5857,0
10.5915,0
10.5972,0
10.6029,0
10.6086,0
10.6143,0
10.6201,0
10.6258,167
10.6315,0
10.6372,0
10.643,0
10.6487,0
10.6544,0
10.6601,0
10.6658,0
10.6716,0
10.6773,0
10.683,0
10.6887,0
10.6945,157
10.7002,0
10.7059,0
10.7116,0
10.7173,0
10.7231,0
10.7288,0
10.7345,0
10.7402,0
10.746,0
10.7517,0
10.7574,0
10.7631,0
10.7688,0
10.7746,0
10.7803,0
10.786,0
10.7917,0
10.7975,0
10.8032,0
10.8089,0
10.8146,181
10.8203,0
10.8261,0
10.8318,0
10.8375,0
10.8432,0
10.8489,0
10.8547,0
10.8604,0
10.8661,0
10.8718,0
10.8776,0
10.8833,0
10.889,0
10.8947,0
10.9004,156
10.9062,0
10.9119,0
10.9176,0
10.9233,0
10.9291,0
10.9348,0
10.9405,0
10.9462,0
10.9519,0
10.9577,0
10.9634,0
10.9691,0
10.9748,0
10.9806,0
10.9863,0
10.992,0
10.9977,0
11.0034,0
11.0092,0
11.0149,0
11.0206,0
11.0263,0
11.0321,0
11.0378,0
11.0435,0
11.0492,0
11.0549,0
11.0607,0
11.0664,0
11.0721,0
11.0778,0
11.0835,0
11.0893,0
11.095,0
11.1007,0
11.1064,0
11.1122,0
11.1179,0
11.1236,0
11.1293,0
11.135,0
11.1408,0
11.1465,0
11.1522,0
11.1579,0
11.1637,0
11.1694,0
11.1751,0
11.1808,0
11.1865,0
11.1923,0
11.198,0
11.2037,0
11.2094,0
11.2152,173
11.2209,0
11.2266,0
11.2323,0
11.238,0
11.2438,0
11.2495,185
11.2552,155
11.2609,0
11.2667,0
11.2724,0
11.2781,0
11.2838,0
11.2895,0
11.2953,0
11.301,0
11.3067,0
11.3124,0
11.3181,0
11.3239,0
11.3296,0
11.3353,0
11.341,0
11.3468,0
11.3525,0
11.3582,0
11.3639,0
11.3696,0
11.3754,0
11.3811,0
11.3868,0
11.3925,0
11.3983,0
11.404,0
11.4097,0
11.4154,0
11.4211,0
11.4269,0
11.4326,174
11.4383,0
11.444,0
11.4498,0
11.4555,0
11.4612,151
11.4669,0
11.4726,0
11.4784,0
11.4841,0
11.4898,179
11.4955,0
11.5013,179
11.507,0
11.5127,152
11.5184,0
11.5241,0
11.5299,0
11.5356,150
11.5413,0
11.547,0
11.5528,0
11.5585,0
11.5642,0
11.5699,0
11.5756,194
11.5814,0
11.5871,176
11.5928,0
11.5985,0
11.6042,187
11.61,0
11.6157,0
11.6214,0
11.6271,0
11.6329,0
11.6386,151
11.6443,0
11.65,0
11.6557,0
11.6615,0
11.6672,184
11.6729,164
11.6786,0
11.6844,0
11.6901,176
11.6958,0
11.7015,0
11.7072,0
11.713,0
11.7187,173
11.7244,170
11.7301,0
11.7359,0
11.7416,0
11.7473,0
11.753,0
11.7587,0
11.7645,0
11.7702,0
11.7759,195
11.7816,191
11.7874,0
11.7931,0
11.7988,159
11.8045,0
11.8102,0
11.816,232
11.8217,183
11.8274,160
11.8331,188
11.8388,0
11.8446,0
11.8503,183
11.856,157
11.8617,0
11.8675,167
11.8732,170
11.8789,244
11.8846,0
11.8903,0
11.8961,0
11.9018,167
11.9075,164
11.9132,238
11.919,182
11.9247,183
11.9304,0
11.9361,0
11.9418,0
11.9476,0
11.9533,0
11.959,164
11.9647,0
11.9705,170
11.9762,0
11.9819,176
11.9876,157
11.9933,155
11.9991,226
12.0048,171
12.0105,152
12.0162,0
12.022,0
12.0277,151
12.0334,176
12.0391,0
12.0448,0
12.0506,0
12.0563,0
12.062,167
12.0677,0
12.0734,193
12.0792,187
12.0849,0
12.0906,212
12.0963,248
12.1021,155
12.1078,0
12.1135,172
12.1192,322
12.1249,0
12.1307,0
12.1364,228
12.1421,160
12.1478,0
12.1536,0
12.1593,162
12.165,0
12.1707,158
12.1764,0
12.1822,0
12.1879,168
12.1936,160
12.1993,0
12.2051,204
12.2108,175
12.2165,162
12.2222,202
12.2279,169
12.2337,264
12.2394,0
12.2451,336
12.2508,0
12.2566,0
12.2623,250
12.268,243
12.2737,0
12.2794,261
12.2852,0
12.2909,0
12.2966,187
12.3023,171
12.3081,150
12.3138,0
12.3195,243
12.3252,152
12.3309,192
12.3367,186
12.3424,0
12.3481,237
12.3538,159
12.3595,218
12.3653,213
12.371,201
12.3767,190
12.3824,278
12.3882,0
12.3939,220
12.3996,207
12.4053,0
12.411,173
12.4168,164
12.4225,209
12.4282,153
12.4339,194
12.4397,186
12.4454,0
12.4511,258
12.4568,215
12.4625,0
12.4683,0
12.474,223
12.4797,192
12.4854,0
12.4912,298
12.4969,228
12.5026,190
12.5083,247
12.514,172
12.5198,190
12.5255,0
12.5312,189
12.5369,233
12.5427,253
12.5484,230
12.5541,0
12.5598,249
12.5655,316
12.5713,200
12.577,263
12.5827,156
12.5884,194
12.5941,223
12.5999,336
12.6056,157
12.6113,268
12.617,228
12.6228,229
12.6285,291
12.6342,228
12.6399,211
12.6456,0
12.6514,260
12.6571,176
12.6628,0
12.6685,176
12.6743,186
12.68,202
12.6857,272
12.6914,438
12.6971,504
12.7029,157
12.7086,357
12.7143,230
12.72,255
12.7258,337
12.7315,263
12.7372,209
12.7429,297
12.7486,250
12.7544,224
12.7601,179
12.7658,291
12.7715,346
12.7773,319
12.783,210
12.7887,246
12.7944,226
12.8001,399
12.8059,221
12.8116,205
12.8173,236
12.823,232
12.8288,241
12.8345,196
12.8402,487
12.8459,222
12.8516,252
12.8574,270
12.8631,265
12.8688,308
12.8745,242
12.8802,218
12.886,280
12.8917,179
12.8974,298
12.9031,350
12.9089,205
12.9146,256
12.9203,230
12.926,251
12.9317,197
12.9375,309
12.9432,0
12.9489,394
12.9546,222
12.9604,252
12.9661,311
12.9718,170
12.9775,260
12.9832,300
12.989,273
12.9947,285
13.0004,246
13.0061,193
13.0119,229
13.0176,418
13.0233,440
13.029,192
13.0347,338
13.0405,198
13.0462,462
13.0519,205
13.0576,308
13.0634,333
13.0691,271
13.0748,311
13.0805,600
13.0862,291
13.092,244
13.0977,344
13.1034,249
13.1091,368
13.1148,218
13.1206,261
13.1263,266
13.132,507
13.1377,267
13.1435,334
13.1492,321
13.1549,267
13.1606,352
13.1663,308
13.1721,0
13.1778,332
13.1835,314
13.1892,294
13.195,312
13.2007,299
13.2064,327
13.2121,436
13.2178,385
13.2236,309
13.2293,322
13.235,276
13.2407,247
13.2465,299
13.2522,497
13.2579,256
13.2636,297
13.2693,363
13.2751,322
13.2808,232
13.2865,457
13.2922,434
13.298,277
13.3037,366
13.3094,212
13.3151,269
13.3208,248
13.3266,333
13.3323,489
13.338,428
13.3437,297
13.3494,305
13.3552,283
13.3609,378
13.3666,363
13.3723,452
13.3781,311
13.3838,324
13.3895,514
13.3952,594
13.4009,304
13.4067,531
13.4124,533
13.4181,365
13.4238,639
13.4296,287
13.4353,418
13.441,524
13.4467,807
13.4524,619
13.4582,341
13.4639,284
13.4696,516
13.4753,596
13.4811,479
13.4868,253
13.4925,414
13.4982,516
13.5039,321
13.5097,289
13.5154,526
13.5211,521
13.5268,708
13.5326,475
13.5383,571
13.544,580
13.5497,536
13.5554,525
13.5612,540
13.5669,361
13.5726,362
13.5783,470
13.5841,426
13.5898,727
13.5955,239
13.6012,574
13.6069,367
13.6127,575
13.6184,558
13.6241,380
13.6298,363
13.6355,451
13.6413,383
13.647,656
13.6527,583
13.6584,572
13.6642,423
13.6699,732
13.6756,548
13.6813,385
13.687,372
13.6928,682
13.6985,584
13.7042,615
13.7099,563
13.7157,457
13.7214,384
13.7271,636
13.7328,745
13.7385,741
13.7443,649
13.75,836
13.7557,577
13.7614,665
13.7672,524
13.7729,606
13.7786,718
13.7843,560
13.79,579
13.7958,590
13.8015,307
13.8072,739
13.8129,608
13.8187,509
13.8244,649
13.8301,671
13.8358,697
13.8415,639
13.8473,592
13.853,424
13.8587,607
13.8644,701
13.8701,476
13.8759,667
13.8816,610
13.8873,595
13.893,537
13.8988,699
13.9045,586
13.9102,723
13.9159,794
13.9216,645
13.9274,361
13.9331,640
13.9388,659
13.9445,450
13.9503,869
13.956,626
13.9617,738
13.9674,763
13.9731,615
13.9789,627
13.9846,654
13.9903,864
13.996,721
14.0018,715
14.0075,785
14.0132,596
14.0189,834
14.0246,734
14.0304,558
14.0361,520
14.0418,602
14.0475,704
14.0533,625
14.059,466
14.0647,813
14.0704,819
14.0761,703
14.0819,917
14.0876,892
14.0933,715
14.099,453
14.1047,1120
14.1105,730
14.1162,664
14.1219,832
14.1276,660
14.1334,791
14.1391,787
14.1448,713
14.1505,838
14.1562,834
14.162,815
14.1677,810
14.1734,724
14.1791,914
14.1849,748
14.1906,886
14.1963,880
14.202,894
14.2077,875
14.2135,1118
14.2192,3040
14.2249,5307
14.2306,7334
14.2364,7316
14.2421,5174
14.2478,2738
14.2535,1802
14.2592,1448
14.265,795
14.2707,788
14.2764,961
14.2821,785
14.2879,1119
14.2936,688
14.2993,893
14.305,622
14.3107,788
14.3165,959
14.3222,1050
14.3279,1246
14.3336,945
14.3394,1006
14.3451,1016
14.3508,1008
14.3565,939
14.3622,994
14.368,764
14.3737,962
14.3794,856
14.3851,821
14.3908,793
14.3966,712
14.4023,1013
14.408,896
14.4137,1053
14.4195,704
14.4252,1302
14.4309,999
14.4366,1131
14.4423,968
14.4481,1164
14.4538,1025
14.4595,762
14.4652,1086
14.471,1011
14.4767,1116
14.4824,830
14.4881,1047
14.4938,983
14.4996,1000
14.5053,965
14.511,1111
14.5167,1143
14.5225,1014
14.5282,928
14.5339,1068
14.5396,1324
14.5453,1075
14.5511,1076
14.5568,1265
14.5625,868
14.5682,865
14.574,1184
14.5797,1294
14.5854,949
14.5911,1224
14.5968,1034
14.6026,983
14.6083,1054
14.614,1341
14.6197,1404
14.6254,1091
14.6312,1396
14.6369,1216
14.6426,1026
14.6483,868
14.6541,1149
14.6598,1187
14.6655,1432
14.6712,1319
14.6769,1377
14.6827,1211
14.6884,972
14.6941,1109
14.6998,1569
14.7056,1083
14.7113,1287
14.717,1259
14.7227,1270
14.7284,1033
14.7342,1141
14.7399,1174
14.7456,1799
14.7513,992
14.7571,1255
14.7628,1481
14.7685,1487
14.7742,1313
14.7799,1173
14.7857,1136
14.7914,1433
14.7971,1183
14.8028,1435
14.8086,1542
14.8143,1191
14.82,1771
14.8257,1543
14.8314,1346
14.8372,1380
14.8429,1254
14.8486,1703
14.8543,1391
14.86,1278
14.8658,1103
14.8715,1519
14.8772,1327
14.8829,1770
14.8887,1166
14.8944,1345
14.9001,1651
14.9058,1528
14.9115,1628
14.9173,1600
14.923,1715
14.9287,1205
14.9344,1406
14.9402,1780
14.9459,1870
14.9516,1523
14.9573,1621
14.963,1647
14.9688,1623
14.9745,1549
14.9802,1585
14.9859,1794
14.9917,1501
14.9974,1479
15.0031,1508
15.0088,1620
15.0145,1462
15.0203,1412
15.026,2128
15.0317,1884
15.0374,2046
15.0432,1956
15.0489,1658
15.0546,1903
15.0603,1589
15.066,1585
15.0718,1801
15.0775,1734
15.0832,1347
15.0889,1867
15.0947,1520
15.1004,1735
15.1061,1343
15.1118,1638
15.1175,1889
15.1233,2125
15.129,1531
15.1347,1520
15.1404,1885
15.1461,1692
15.1519,1818
15.1576,1870
15.1633,2026
15.169,1795
15.1748,1841
15.1805,2076
15.1862,1818
15.1919,1883
15.1976,2181
15.2034,2319
15.2091,1974
15.2148,1901
15.2205,1913
15.2263,2366
15.232,2036
15.2377,2532
15.2434,1978
15.2491,2507
15.2549,2312
15.2606,2263
15.2663,1952
15.272,1737
15.2778,1796
15.2835,2139
15.2892,2410
15.2949,2038
15.3006,2698
15.3064,2341
15.3121,2345
15.3178,2128
15.3235,2423
15.3293,2037
15.335,2411
15.3407,2275
15.3464,2424
15.3521,2302
15.3579,2268
15.3636,1743
15.3693,2175
15.375,2277
15.3807,2745
15.3865,2435
15.3922,2480
15.3979,2187
15.4036,2530
15.4094,2253
15.4151,2190
15.4208,2682
15.4265,2352
15.4322,2683
15.438,2803
15.4437,2673
15.4494,2239
15.4551,2252
15.4609,2507
15.4666,2749
15.4723,2715
15.478,3316
15.4837,2456
15.4895,2810
15.4952,2629
15.5009,2796
15.5066,2750
15.5124,2291
15.5181,2732
15.5238,2847
15.5295,2382
15.5352,3134
15.541,2686
15.5467,2602
15.5524,2713
15.5581,2544
15.5639,2468
15.5696,3176
15.5753,3294
15.581,2218
15.5867,3265
15.5925,2841
15.5982,2618
15.6039,2712
15.6096,2700
15.6153,3076
15.6211,2491
15.6268,3206
15.6325,3188
15.6382,3007
15.644,2835
15.6497,2805
15.6554,3724
15.6611,3265
15.6668,3428
15.6726,3148
15.6783,3333
15.684,3308
15.6897,3237
15.6955,3233
15.7012,3616
15.7069,3145
15.7126,2638
15.7183,2810
15.7241,3252
15.7298,3260
15.7355,3345
15.7412,3894
15.747,3704
15.7527,3750
15.7584,3281
15.7641,3458
15.7698,2771
15.7756,3068
15.7813,3025
15.787,3325
15.7927,3925
15.7985,3330
15.8042,3615
15.8099,3422
15.8156,3388
15.8213,2730
15.8271,3586
15.8328,3307
15.8385,3434
15.8442,2996
15.85,3790
15.8557,3423
15.8614,3526
15.8671,3561
15.8728,3688
15.8786,3601
15.8843,3613
15.89,3436
15.8957,3634
15.9014,3633
15.9072,3975
15.9129,3461
15.9186,3552
15.9243,3426
15.9301,3771
15.9358,3749
15.9415,3892
15.9472,3799
15.9529,3735
15.9587,4288
15.9644,3793
15.9701,3608
15.9758,4295
15.9816,3945
15.9873,4093
15.993,4246
15.9987,4132
16.0044,3634
16.0101,3575
16.0159,4432
16.0216,3552
16.0273,3985
16.033,4204
16.0388,4035
16.0445,4510
16.0502,4072
16.0559,4063
16.0617,3771
16.0674,4071
16.0731,4160
16.0788,4165
16.0846,4477
16.0903,3518
16.096,4021
16.1017,4095
16.1074,4241
16.1132,4376
16.1189,4454
16.1246,4276
16.1303,4483
16.136,4730
16.1418,4576
16.1475,4476
16.1532,4832
16.1589,4181
16.1647,4599
16.1704,4605
16.1761,4890
16.1818,4446
16.1875,4474
16.1933,4362
16.199,4335
16.2047,4472
16.2104,4706
16.2161,4984
16.2219,4612
16.2276,4404
16.2333,4602
16.239,4378
16.2448,4357
16.2505,4787
16.2562,3704
16.2619,5443
16.2677,4491
16.2734,4725
16.2791,4789
16.2848,4991
16.2905,5086
16.2963,4858
16.302,5017
16.3077,4967
16.3134,4672
16.3192,4737
16.3249,5685
16.3306,5020
16.3363,5028
16.342,5752
16.3478,5112
16.3535,4460
16.3592,5134
16.3649,4795
16.3707,5694
16.3764,5242
16.3821,4982
16.3878,5303
16.3935,4757
16.3992,4971
16.405,5666
16.4107,5654
16.4164,5677
16.4221,5394
16.4279,5625
16.4336,5638
16.4393,5594
16.445,5349
16.4507,4694
16.4565,5454
16.4622,5605
16.4679,5520
16.4736,5555
16.4794,5918
16.4851,5324
16.4908,5566
16.4965,5920
16.5023,4951
16.508,5768
16.5137,5936
16.5194,5957
16.5251,6048
16.5309,5593
16.5366,6524
16.5423,6044
16.548,5728
16.5538,5740
16.5595,6071
16.5652,5363
16.5709,5976
16.5766,6055
16.5824,6183
16.5881,5790
16.5938,6114
16.5995,5954
16.6053,5692
16.611,5728
16.6167,6607
16.6224,6579
16.6281,6041
16.6338,6352
16.6396,6089
16.6453,6351
16.651,6219
16.6567,6417
16.6625,6388
16.6682,6902
16.6739,6504
16.6796,6890
16.6854,5725
16.6911,6837
16.6968,6891
16.7025,6794
16.7082,6586
16.714,6804
16.7197,6233
16.7254,6903
16.7311,6964
16.7369,6594
16.7426,6918
16.7483,6898
16.754,6855
16.7597,7323
16.7655,6818
16.7712,7418
16.7769,7274
16.7826,7151
16.7884,7358
16.7941,6608
16.7998,6982
16.8055,6749
16.8112,7054
16.8169,7546
16.8227,6892
16.8284,8046
16.8341,6926
16.8398,7030
16.8456,7002
16.8513,7283
16.857,7344
16.8627,7788
16.8684,7721
16.8742,6902
16.8799,7482
16.8856,7842
16.8913,7261
16.8971,7054
16.9028,7542
16.9085,7913
16.9142,7048
16.92,7397
16.9257,8043
16.9314,7543
16.9371,7727
16.9428,7949
16.9486,7630
16.9543,7685
16.96,7828
16.9657,8301
16.9715,8059
16.9772,8227
16.9829,8209
16.9886,8547
16.9943,8633
17.0001,7922
17.0058,8488
17.0115,7475
17.0172,7991
17.023,8152
17.0287,8430
17.0344,8500
17.0401,8165
17.0458,8815
17.0515,8417
17.0573,7886
17.063,8311
17.0687,8559
17.0744,8652
17.0802,8659
17.0859,8481
17.0916,8890
17.0973,9011
17.1031,8668
17.1088,9099
17.1145,9067
17.1202,8525
17.126,8671
17.1317,8665
17.1374,8635
17.1431,9560
17.1488,8998
17.1546,9266
17.1603,9477
17.166,9271
17.1717,8894
17.1774,9295
17.1832,9584
17.1889,8721
17.1946,9102
17.2003,8672
17.2061,9643
17.2118,10061
17.2175,9753
17.2232,9614
17.2289,9329
17.2347,9180
17.2404,10252
17.2461,9861
17.2518,8873
17.2575,9773
17.2633,10292
17.269,9799
17.2747,10563
17.2804,9512
17.2861,9597
17.2919,9530
17.2976,9954
17.3033,9937
17.309,10231
17.3148,9408
17.3205,10753
17.3262,9913
17.3319,9975
17.3377,10823
17.3434,10426
17.3491,10311
17.3548,10914
17.3606,9977
17.3663,10150
17.372,10351
17.3777,10657
17.3834,9664
17.3892,10533
17.3949,11672
17.4006,11189
17.4063,10966
17.412,10905
17.4178,10898
17.4235,10449
17.4292,10314
17.4349,11211
17.4407,11408
17.4464,10488
17.4521,11378
17.4578,11426
17.4635,11281
17.4693,11505
17.475,11907
17.4807,10823
17.4864,11889
17.4922,11609
17.4979,11391
17.5036,11724
17.5093,11196
17.515,11328
17.5208,12220
17.5265,16395
17.5322,17905
17.5379,18967
17.5437,17323
17.5494,14717
17.5551,13436
17.5608,12319
17.5665,12465
17.5723,12199
17.578,11847
17.5837,11621
17.5894,12351
17.5952,12124
17.6009,12106
17.6066,11341
17.6123,12671
17.618,12027
17.6238,12145
17.6295,12102
17.6352,13264
17.6409,12986
17.6466,12462
17.6524,11796
17.6581,11977
17.6638,13629
17.6695,13098
17.6753,12929
17.681,12777
17.6867,12693
17.6924,12533
17.6981,12612
17.7039,13647
17.7096,13086
17.7153,13165
17.721,13147
17.7267,13526
17.7325,14155
17.7382,13839
17.7439,13069
17.7496,13579
17.7554,13137
17.7611,13583
17.7668,13224
17.7725,13590
17.7783,13355
17.784,13042
17.7897,13274
17.7954,13393
17.8011,13883
17.8069,13539
17.8126,14550
17.8183,13867
17.824,13709
17.8298,13949
17.8355,13619
17.8412,13748
17.8469,13857
17.8526,13952
17.8584,14363
17.8641,13643
17.8698,14111
17.8755,13710
17.8813,14063
17.887,14605
17.8927,13967
17.8984,15000
17.9041,14881
17.9099,15341
17.9156,14752
17.9213,14341
17.927,14127
17.9327,14557
17.9385,14648
17.9442,15299
17.9499,14127
17.9556,15687
17.9613,15416
17.9671,15951
17.9728,14779
17.9785,14402
17.9842,15459
17.99,15766
17.9957,15816
18.0014,16429
18.0071,16162
18.0129,15034
18.0186,14923
18.0243,16521
18.03,15273
18.0357,15547
18.0415,15930
18.0472,15870
18.0529,15278
18.0586,15423
18.0644,16232
18.0701,17084
18.0758,16249
18.0815,16015
18.0872,15772
18.093,15618
18.0987,15863
18.1044,16293
18.1101,16009
18.1159,17081
18.1216,15890
18.1273,16739
18.133,17135
18.1387,16105
18.1445,16496
18.1502,17007
18.1559,16640
18.1616,16446
18.1673,16840
18.1731,16511
18.1788,15961
18.1845,16745
18.1902,17526
18.196,17225
18.2017,17703
18.2074,17185
18.2131,16642
18.2188,16887
18.2246,17086
18.2303,17946
18.236,16974
18.2417,17273
18.2475,16786
18.2532,17210
18.2589,18073
18.2646,16897
18.2703,17873
18.2761,17255
18.2818,17808
18.2875,17928
18.2932,17695
18.299,17202
18.3047,18383
18.3104,17926
18.3161,18453
18.3218,17939
18.3276,17492
18.3333,18335
18.339,18312
18.3447,18353
18.3505,17210
18.3562,18031
18.3619,17918
18.3676,18888
18.3733,18883
18.379,18160
18.3848,18152
18.3905,18315
18.3962,19200
18.4019,18232
18.4077,18004
18.4134,19107
18.4191,19195
18.4248,19112
18.4306,18798
18.4363,19043
18.442,19891
18.4477,19437
18.4534,19906
18.4592,18951
18.4649,18255
18.4706,19471
18.4763,19058
18.4821,19350
18.4878,19351
18.4935,19103
18.4992,17829
18.5049,19731
18.5107,19421
18.5164,19409
18.5221,19326
18.5278,20571
18.5336,20164
18.5393,18782
18.545,20002
18.5507,18788
18.5564,19917
18.5622,19801
18.5679,19741
18.5736,20642
18.5793,19483
18.5851,19879
18.5908,20075
18.5965,20295
18.6022,20963
18.6079,20195
18.6137,19482
18.6194,20711
18.6251,19893
18.6308,20600
18.6366,20871
18.6423,19949
18.648,20633
18.6537,20544
18.6594,21110
18.6652,20991
18.6709,21285
18.6766,22003
18.6823,20496
18.688,20171
18.6938,20751
18.6995,20544
18.7052,20456
18.7109,20594
18.7167,20820
18.7224,20240
18.7281,21201
18.7338,21499
18.7395,21030
18.7453,21215
18.751,22920
18.7567,22020
18.7624,20816
18.7682,21826
18.7739,21260
18.7796,21778
18.7853,21493
18.791,22799
18.7967,22408
18.8025,21467
18.8082,20613
18.8139,22874
18.8196,21934
18.8254,21335
18.8311,20679
18.8368,22491
18.8425,21906
18.8483,22485
18.854,22891
18.8597,21709
18.8654,21087
18.8712,21949
18.8769,22588
18.8826,21689
18.8883,23396
18.894,22611
18.8998,22868
18.9055,20342
18.9112,22500
18.9169,22317
18.9226,22678
18.9284,22198
18.9341,22145
18.9398,22706
18.9455,22947
18.9513,22261
18.957,22039
18.9627,22787
18.9684,23095
18.9741,22953
18.9799,22867
18.9856,24402
18.9913,23184
18.997,22123
19.0028,22994
19.0085,23480
19.0142,23054
19.0199,21985
19.0256,22700
19.0314,24692
19.0371,23056
19.0428,22829
19.0485,23549
19.0543,23907
19.06,23299
19.0657,24141
19.0714,23265
19.0771,23196
19.0829,23732
19.0886,23115
19.0943,25337
19.1,23011
19.1058,23846
19.1115,23916
19.1172,22959
19.1229,23406
19.1286,24353
19.1344,24010
19.1401,23792
19.1458,23767
19.1515,24734
19.1572,24481
19.163,23891
19.1687,23079
19.1744,24588
19.1801,25382
19.1859,23603
19.1916,23900
19.1973,23055
19.203,24339
19.2087,24711
19.2145,23435
19.2202,25507
19.2259,23426
19.2316,23976
19.2373,24457
19.2431,23743
19.2488,24860
19.2545,23953
19.2602,24258
19.266,23377
19.2717,24583
19.2774,24227
19.2831,25196
19.2889,24278
19.2946,23536
19.3003,24451
19.306,24885
19.3117,23718
19.3175,24928
19.3232,25171
19.3289,23952
19.3346,25090
19.3404,24314
19.3461,24506
19.3518,23576
19.3575,23856
19.3632,23347
19.369,24767
19.3747,23329
19.3804,24615
19.3861,24954
19.3919,24067
19.3976,23588
19.4033,24872
19.409,24752
19.4147,24836
19.4205,24849
19.4262,24244
19.4319,23406
19.4376,23600
19.4433,23989
19.4491,24084
19.4548,24217
19.4605,24409
19.4662,23977
19.472,24022
19.4777,24565
19.4834,24387
19.4891,24121
19.4948,24861
19.5006,24035
19.5063,24244
19.512,24468
19.5177,24252
19.5235,25443
19.5292,23530
19.5349,25104
19.5406,23497
19.5463,24332
19.5521,23646
19.5578,24541
19.5635,24195
19.5692,23654
19.575,25252
19.5807,23921
19.5864,24785
19.5921,25631
19.5978,23709
19.6036,24180
19.6093,24953
19.615,24673
19.6207,25070
19.6265,23104
19.6322,24922
19.6379,24240
19.6436,22340
19.6493,24849
19.655,24958
19.6608,25641
19.6665,24629
19.6722,23373
19.6779,24136
19.6837,24408
19.6894,25248
19.6951,24306
19.7008,23134
19.7066,24256
19.7123,24358
19.718,24693
19.7237,23941
19.7294,24098
19.7352,24576
19.7409,23870
19.7466,23403
19.7523,25512
19.7581,22965
19.7638,24682
19.7695,25596
19.7752,24144
19.7809,23491
19.7867,24295
19.7924,24510
19.7981,23777
19.8038,25172
19.8096,26020
19.8153,23589
19.821,24594
19.8267,25649
19.8324,26061
19.8382,24272
19.8439,24288
19.8496,23675
19.8553,24936
19.8611,24384
19.8668,23643
19.8725,23608
19.8782,25025
19.8839,23891
19.8897,25250
19.8954,24663
19.9011,24864
19.9068,24255
19.9126,24681
19.9183,23775
19.924,24021
19.9297,24520
19.9354,25041
19.9412,23706
19.9469,25317
19.9526,25254
19.9583,23826
19.964,25379
19.9698,24233
19.9755,24460
19.9812,23048
19.9869,24729
19.9927,25074
19.9984,23993
20.0041,23893
20.0098,24823
20.0155,25106
20.0213,23439
20.027,23905
20.0327,24629
20.0384,25705
20.0442,23403
20.0499,24554
20.0556,24789
20.0613,23676
20.067,23372
20.0727,25003
20.0785,25077
20.0842,26053
20.0899,24788
20.0957,25156
20.1014,24475
20.1071,24015
20.1128,25504
20.1185,23704
20.1243,23910
20.13,24436
20.1357,24306
20.1414,23842
20.1472,24840
20.1529,24167
20.1586,25424
20.1643,25284
20.17,24602
20.1758,24960
20.1815,25118
20.1872,24234
20.1929,25165
20.1986,24726
20.2044,25331
20.2101,24996
20.2158,25053
20.2215,23740
20.2273,24645
20.233,24642
20.2387,23695
20.2444,25397
20.2501,24579
20.2559,25017
20.2616,23758
20.2673,23972
20.273,25127
20.2788,24736
20.2845,24726
20.2902,25248
20.2959,23153
20.3016,24345
20.3074,24554
20.3131,25043
20.3188,24617
20.3245,25522
20.3302,24905
20.336,24027
20.3417,24356
20.3474,23645
20.3531,23567
20.3589,23252
20.3646,24927
20.3703,24912
20.376,24892
20.3818,24369
20.3875,24516
20.3932,24132
20.3989,23975
20.4046,24883
20.4104,24522
20.4161,23724
20.4218,24497
20.4275,23795
20.4332,24622
20.439,25371
20.4447,25246
20.4504,24465
20.4561,23913
20.4619,24821
20.4676,25389
20.4733,25075
20.479,24240
20.4847,24657
20.4905,25187
20.4962,24347
20.5019,24752
20.5076,24677
20.5134,25119
20.5191,25272
20.5248,24004
20.5305,24545
20.5362,24301
20.542,23548
20.5477,24368
20.5534,24974
20.5591,24449
20.5649,25333
20.5706,25705
20.5763,24130
20.582,24739
20.5877,24161
20.5935,25033
20.5992,25006
20.6049,24884
20.6106,23217
20.6164,24490
20.6221,23689
20.6278,24568
20.6335,24338
20.6392,25319
20.645,24388
20.6507,25486
20.6564,24888
20.6621,23873
20.6679,24918
20.6736,25356
20.6793,24588
20.685,24913
20.6907,24426
20.6965,24291
20.7022,24159
20.7079,24116
20.7136,25008
20.7193,24759
20.7251,25241
20.7308,24138
20.7365,25306
20.7422,24667
20.7479,24573
20.7537,24163
20.7594,25005
20.7651,25422
20.7708,23999
20.7766,23994
20.7823,23359
20.788,24809
20.7937,24473
20.7995,24019
20.8052,24266
20.8109,23326
20.8166,24653
20.8223,24643
20.8281,25333
20.8338,25681
20.8395,24508
20.8452,25229
20.851,26836
20.8567,24384
20.8624,24634
20.8681,25371
20.8738,25160
20.8796,23415
20.8853,25816
20.891,25018
20.8967,24077
20.9025,25450
20.9082,24644
20.9139,23772
20.9196,25064
20.9253,24631
20.9311,24207
20.9368,24625
20.9425,24428
20.9482,24074
20.9539,24234
20.9597,24193
20.9654,23990
20.9711,23906
20.9768,25774
20.9826,23558
20.9883,25766
20.994,24690
20.9997,24070
21.0054,24642
21.0112,25646
21.0169,23887
21.0226,23881
21.0283,24776
21.0341,25476
21.0398,25417
21.0455,25489
21.0512,25639
21.0569,25069
21.0627,24378
21.0684,23772
21.0741,25050
21.0798,25972
21.0856,24806
21.0913,24867
21.097,24215
21.1027,24868
21.1084,24677
21.1142,24202
21.1199,24630
21.1256,25144
21.1313,24691
21.1371,23715
21.1428,24887
21.1485,25736
21.1542,24694
21.1599,24109
21.1656,24792
21.1714,24424
21.1771,25908
21.1828,25399
21.1885,24063
21.1943,25145
21.2,24532
21.2057,24874
21.2114,25633
21.2172,23845
21.2229,24994
21.2286,24951
21.2343,23590
21.24,24151
21.2458,25582
21.2515,24438
21.2572,24451
21.2629,24597
21.2687,23713
21.2744,25563
21.2801,24186
21.2858,23736
21.2915,24904
21.2973,25728
21.303,25879
21.3087,25198
21.3144,24700
21.3202,24794
21.3259,25218
21.3316,24294
21.3373,24530
21.343,23404
21.3488,24683
21.3545,23677
21.3602,24618
21.3659,25258
21.3717,25154
21.3774,24553
21.3831,23444
21.3888,25308
21.3945,25507
21.4003,24750
21.406,25463
21.4117,25638
21.4174,24073
21.4232,24324
21.4289,25038
21.4346,24499
21.4403,24238
21.446,24394
21.4518,25028
21.4575,26134
21.4632,25619
21.4689,25327
21.4746,25539
21.4804,24625
21.4861,24749
21.4918,24637
21.4975,25693
21.5033,25099
21.509,24784
21.5147,25200
21.5204,24882
21.5261,24855
21.5319,24596
21.5376,24857
21.5433,25081
21.549,25029
21.5548,24040
21.5605,23789
21.5662,24526
21.5719,24829
21.5776,25111
21.5833,23129
21.5891,25038
21.5948,25628
21.6005,25519
21.6062,24972
21.612,24814
21.6177,24867
21.6234,25356
21.6291,26425
21.6349,24622
21.6406,25346
21.6463,25180
21.652,25145
21.6578,24870
21.6635,23626
21.6692,26808
21.6749,24616
21.6806,24850
21.6864,24195
21.6921,24688
21.6978,24936
21.7035,25243
21.7092,25739
21.715,25039
21.7207,24392
21.7264,24923
21.7321,25592
21.7379,25524
21.7436,24388
21.7493,24367
21.755,24015
21.7607,23589
21.7665,26503
21.7722,25274
21.7779,25548
21.7836,24270
21.7894,24482
21.7951,25004
21.8008,24852
21.8065,24219
21.8122,24866
21.818,25800
21.8237,25532
21.8294,24090
21.8351,24710
21.8409,25225
21.8466,25347
21.8523,25348
21.858,24471
21.8637,24821
21.8695,24953
21.8752,24995
21.8809,25596
21.8866,24600
21.8924,24472
21.8981,24666
21.9038,24988
21.9095,25656
21.9152,25102
21.921,24116
21.9267,24291
21.9324,24526
21.9381,24405
21.9438,25326
21.9496,25155
21.9553,24586
21.961,24171
21.9667,24833
21.9725,24904
21.9782,24777
21.9839,25069
21.9896,24879
21.9953,25607
22.0011,24091
22.0068,25259
22.0125,24900
22.0182,25413
22.024,25957
22.0297,25419
22.0354,25807
22.0411,24375
22.0468,25083
22.0526,24916
22.0583,23924
22.064,25183
22.0697,24818
22.0755,25129
22.0812,24475
22.0869,25473
22.0926,25518
22.0983,25463
22.1041,24779
22.1098,23740
22.1155,25848
22.1212,25233
22.127,24854
22.1327,25229
22.1384,25294
22.1441,25576
22.1498,24758
22.1556,25924
22.1613,25518
22.167,25564
22.1727,25057
22.1785,26395
22.1842,24215
22.1899,25413
22.1956,24817
22.2013,24301
22.2071,25121
22.2128,25513
22.2185,26485
22.2242,24899
22.2299,25077
22.2357,25683
22.2414,24325
22.2471,24690
22.2528,24199
22.2586,25059
22.2643,26187
22.27,25367
22.2757,26490
22.2814,24187
22.2872,24588
22.2929,24245
22.2986,24851
22.3043,26193
22.3101,25631
22.3158,24620
22.3215,24440
22.3272,25638
22.3329,25716
22.3387,25984
22.3444,26099
22.3501,25070
22.3558,25208
22.3616,24669
22.3673,25251
22.373,24899
22.3787,25080
22.3844,24622
22.3902,23788
22.3959,25403
22.4016,25963
22.4073,24247
22.4131,25552
22.4188,24734
22.4245,24487
22.4302,24769
22.4359,25345
22.4417,24962
22.4474,24686
22.4531,24238
22.4588,24931
22.4645,25210
22.4703,25796
22.476,24002
22.4817,24534
22.4874,25277
22.4932,25009
