C:\MSDCHEM\1\DATA\JAMES C\20180125 LACTONE WITH BME AND HYDROXYLAMINE\D 7hr.d 25 Jan 18  10:46 pm
Start of data points
3.0925,11328
3.09823,12072
3.10395,11694
3.10967,11474
3.1154,10875
3.12112,10603
3.12683,11248
3.13257,11261
3.13828,10548
3.144,11069
3.14973,10278
3.15545,10472
3.16117,10027
3.1669,10170
3.17262,11390
3.17833,10874
3.18405,9158
3.18978,9451
3.1955,11001
3.20122,9011
3.20695,10014
3.21267,10060
3.21838,10342
3.22412,9919
3.22983,10818
3.23555,10300
3.24128,10192
3.247,9297
3.25272,10944
3.25845,9724
3.26417,9680
3.26988,8669
3.27562,10106
3.28133,9729
3.28705,9154
3.29278,9492
3.2985,9036
3.30422,8880
3.30993,9147
3.31567,8265
3.32138,8072
3.3271,8995
3.33283,8238
3.33855,8185
3.34427,8208
3.35,8915
3.35572,7292
3.36143,6862
3.36717,8575
3.37288,7841
3.3786,7631
3.38433,7220
3.39005,8157
3.39577,7288
3.4015,7095
3.40722,6585
3.41293,7120
3.41867,6302
3.42438,7086
3.4301,6340
3.43582,6863
3.44155,6393
3.44727,7558
3.45298,7116
3.45872,5969
3.46443,5997
3.47015,6274
3.47588,6840
3.4816,6023
3.48732,5366
3.49305,5996
3.49877,5556
3.50448,6473
3.51022,6341
3.51593,6430
3.52165,5859
3.52738,5760
3.5331,6096
3.53882,6692
3.54455,5721
3.55027,6104
3.55598,6075
3.5617,5996
3.56743,6201
3.57315,5298
3.57887,5919
3.5846,4979
3.59032,6188
3.59603,5881
3.60177,5871
3.60748,5434
3.6132,5923
3.61893,5132
3.62465,6145
3.63037,5481
3.6361,5657
3.64182,4903
3.64753,5362
3.65327,4596
3.65898,5929
3.6647,5242
3.67043,4866
3.67615,5637
3.68187,5540
3.68758,4461
3.69332,4579
3.69903,3646
3.70475,4001
3.71048,4544
3.7162,5344
3.72192,4919
3.72765,4540
3.73337,5213
3.73908,4450
3.74482,4738
3.75053,4197
3.75625,3269
3.76198,4716
3.7677,4737
3.77342,4558
3.77915,3966
3.78487,4076
3.79058,4500
3.79632,5185
3.80203,4723
3.80775,4619
3.81347,4013
3.8192,4023
3.82492,4120
3.83063,4430
3.83637,3888
3.84208,4030
3.8478,4077
3.85353,4465
3.85925,3422
3.86497,4232
3.8707,3991
3.87642,4701
3.88213,3827
3.88787,4088
3.89358,4383
3.8993,4379
3.90503,4528
3.91075,4578
3.91647,3331
3.9222,3164
3.92792,3396
3.93363,3555
3.93935,4413
3.94508,4151
3.9508,3837
3.95652,4474
3.96225,3649
3.96797,2845
3.97368,3392
3.97942,3649
3.98513,3917
3.99085,3759
3.99658,3706
4.0023,3985
4.00802,3522
4.01375,4175
4.01947,3164
4.02518,3127
4.03092,3325
4.03663,3065
4.04235,2936
4.04808,3432
4.0538,3739
4.05952,3641
4.06523,3454
4.07097,3409
4.07668,3978
4.0824,3656
4.08813,4263
4.09385,3376
4.09957,3244
4.1053,2993
4.11102,2954
4.11673,3536
4.12247,3092
4.12818,3948
4.1339,3746
4.13963,2843
4.14535,3369
4.15107,3459
4.1568,2896
4.16252,3380
4.16823,2667
4.17397,3281
4.17968,2851
4.1854,3117
4.19112,3343
4.19685,2741
4.20257,2985
4.20828,2632
4.21402,3169
4.21973,3103
4.22545,1778
4.23118,2883
4.2369,2958
4.24262,2171
4.24835,3234
4.25407,3819
4.25978,3137
4.26552,3547
4.27123,2818
4.27695,2601
4.28268,3142
4.2884,2632
4.29412,2301
4.29985,2949
4.30557,2486
4.31128,3297
4.317,2925
4.32273,3233
4.32845,2876
4.33417,2721
4.3399,2017
4.34562,2650
4.35133,2580
4.35707,3273
4.36278,3360
4.3685,2921
4.37423,2534
4.37995,3040
4.38567,2462
4.3914,3194
4.39712,2643
4.40283,2788
4.40857,2446
4.41428,2641
4.42,2750
4.42573,2746
4.43145,2814
4.43717,2891
4.44288,2660
4.44862,2869
4.45433,2452
4.46005,2960
4.46578,2781
4.4715,2824
4.47722,2443
4.48295,3105
4.48867,2959
4.49438,2993
4.50012,3208
4.50583,3323
4.51155,3103
4.51728,2854
4.523,2713
4.52872,3245
4.53445,2949
4.54017,3217
4.54588,3503
4.55162,3578
4.55733,3089
4.56305,2914
4.56877,3502
4.5745,2484
4.58022,2978
4.58593,2838
4.59167,2671
4.59738,3059
4.6031,2387
4.60883,3519
4.61455,2337
4.62027,2704
4.626,2477
4.63172,2476
4.63743,2653
4.64317,2481
4.64888,2657
4.6546,2064
4.66033,3012
4.66605,2410
4.67177,1966
4.6775,2013
4.68322,2548
4.68893,2535
4.69465,3019
4.70038,2840
4.7061,2527
4.71182,2760
4.71755,2161
4.72327,2376
4.72898,2193
4.73472,3377
4.74043,2532
4.74615,2148
4.75188,2162
4.7576,2540
4.76332,1796
4.76905,2579
4.77477,2806
4.78048,2480
4.78622,2445
4.79193,2702
4.79765,2697
4.80338,2397
4.8091,1565
4.81482,2025
4.82053,2235
4.82627,2378
4.83198,1908
4.8377,2220
4.84343,1726
4.84915,2500
4.85487,2677
4.8606,2210
4.86632,1687
4.87203,1456
4.87777,2489
4.88348,2274
4.8892,1639
4.89493,3143
4.90065,2168
4.90637,2217
4.9121,2643
4.91782,2587
4.92353,2443
4.92927,2345
4.93498,1991
4.9407,1506
4.94643,1795
4.95215,2623
4.95787,2011
4.96358,2463
4.96932,1638
4.97503,1780
4.98075,2082
4.98648,1886
4.9922,2368
4.99792,2368
5.00365,1811
5.00937,2078
5.01508,2606
5.02082,2038
5.02653,2294
5.03225,2481
5.03798,2575
5.0437,2245
5.04942,2218
5.05515,2350
5.06087,2139
5.06658,2159
5.07232,1827
5.07803,2412
5.08375,1579
5.08947,2094
5.0952,2194
5.10092,2212
5.10663,2453
5.11237,2225
5.11808,1952
5.1238,1654
5.12953,2087
5.13525,1698
5.14097,2146
5.1467,1843
5.15242,2089
5.15813,2000
5.16387,1754
5.16958,1510
5.1753,2161
5.18103,1828
5.18675,1858
5.19247,1874
5.1982,2133
5.20392,1875
5.20963,2054
5.21535,1582
5.22108,1585
5.2268,1666
5.23252,1756
5.23825,1508
5.24397,1978
5.24968,1968
5.25542,2167
5.26113,1754
5.26685,1938
5.27258,2115
5.2783,2221
5.28402,1955
5.28975,1742
5.29547,1803
5.30118,2192
5.30692,1994
5.31263,1464
5.31835,2714
5.32408,1529
5.3298,2069
5.33552,1640
5.34123,2300
5.34697,1854
5.35268,1947
5.3584,1216
5.36413,1756
5.36985,1230
5.37557,1784
5.3813,1486
5.38702,2517
5.39273,2153
5.39847,2049
5.40418,2210
5.4099,2239
5.41563,2553
5.42135,3001
5.42707,3005
5.4328,2565
5.43852,4328
5.44423,3331
5.44997,3310
5.45568,2792
5.4614,3074
5.46712,2021
5.47285,2655
5.47857,3139
5.48428,2195
5.49002,2546
5.49573,2612
5.50145,2350
5.50718,2352
5.5129,3022
5.51862,2208
5.52435,2374
5.53007,1780
5.53578,2295
5.54152,2018
5.54723,1863
5.55295,1979
5.55868,2098
5.5644,1815
5.57012,1442
5.57585,1336
5.58157,1506
5.58728,2018
5.593,2020
5.59873,1836
5.60445,1990
5.61017,2255
5.6159,2208
5.62162,1433
5.62733,2436
5.63307,1447
5.63878,1785
5.6445,1432
5.65023,2020
5.65595,1669
5.66167,1629
5.6674,2654
5.67312,1960
5.67883,1658
5.68457,1503
5.69028,1567
5.696,1868
5.70173,2334
5.70745,2234
5.71317,2119
5.71888,1455
5.72462,1404
5.73033,992
5.73605,1355
5.74178,1311
5.7475,1870
5.75322,1996
5.75895,1557
5.76467,1274
5.77038,835
5.77612,1400
5.78183,1843
5.78755,2021
5.79328,1162
5.799,1767
5.80472,1244
5.81045,935
5.81617,1403
5.82188,1498
5.82762,1836
5.83333,894
5.83905,1776
5.84477,982
5.8505,1400
5.85622,2284
5.86193,809
5.86767,2021
5.87338,1185
5.8791,1178
5.88483,1555
5.89055,1353
5.89627,1959
5.902,1892
5.90772,2030
5.91343,1976
5.91917,2096
5.92488,1686
5.9306,2013
5.93633,1208
5.94205,1573
5.94777,1365
5.9535,1924
5.95922,930
5.96493,1084
5.97065,1343
5.97638,1376
5.9821,1670
5.98782,1468
5.99355,1791
5.99927,1613
6.00498,1214
6.01072,1153
6.01643,1262
6.02215,1957
6.02788,2321
6.0336,1472
6.03932,1418
6.04505,1527
6.05077,1365
6.05648,1019
6.06222,1506
6.06793,1628
6.07365,1714
6.07938,1437
6.0851,1579
6.09082,1331
6.09653,2190
6.10227,1108
6.10798,1697
6.1137,1591
6.11943,1649
6.12515,1295
6.13087,1786
6.1366,1636
6.14232,1629
6.14803,1465
6.15377,1378
6.15948,722
6.1652,1328
6.17093,1462
6.17665,1420
6.18237,1741
6.1881,1728
6.19382,1342
6.19953,1771
6.20527,1105
6.21098,1447
6.2167,1319
6.22242,1567
6.22815,1793
6.23387,1183
6.23958,1271
6.24532,1845
6.25103,1191
6.25675,1780
6.26248,1903
6.2682,1346
6.27392,1923
6.27965,1369
6.28537,1106
6.29108,1503
6.29682,1459
6.30253,1899
6.30825,1904
6.31398,1069
6.3197,1806
6.32542,1031
6.33115,1970
6.33687,1928
6.34258,1556
6.3483,1438
6.35403,2065
6.35975,1274
6.36547,1128
6.3712,1322
6.37692,1365
6.38263,1780
6.38837,1684
6.39408,1870
6.3998,1628
6.40553,928
6.41125,945
6.41697,901
6.4227,1587
6.42842,1399
6.43413,1704
6.43987,824
6.44558,1562
6.4513,960
6.45703,1395
6.46275,1726
6.46847,1422
6.47418,1663
6.47992,1487
6.48563,1129
6.49135,1203
6.49708,1632
6.5028,1763
6.50852,1085
6.51425,1673
6.51997,1702
6.52568,1777
6.53142,1676
6.53713,1641
6.54285,1465
6.54858,1561
6.5543,1534
6.56002,1688
6.56575,1244
6.57147,1804
6.57718,1285
6.58292,1264
6.58863,1174
6.59435,1675
6.60007,1189
6.6058,1043
6.61152,1220
6.61723,1547
6.62297,1581
6.62868,1147
6.6344,1714
6.64013,1874
6.64585,1198
6.65157,1449
6.6573,1568
6.66302,1747
6.66873,1946
6.67447,1598
6.68018,1063
6.6859,1709
6.69163,1660
6.69735,1624
6.70307,1508
6.7088,1812
6.71452,1361
6.72023,2436
6.72595,1990
6.73168,1721
6.7374,2491
6.74312,1867
6.74885,2453
6.75457,2313
6.76028,2003
6.76602,2295
6.77173,2397
6.77745,2183
6.78318,1798
6.7889,1944
6.79462,1789
6.80035,1906
6.80607,1957
6.81178,2643
6.81752,2063
6.82323,1729
6.82895,1661
6.83468,1104
6.8404,1666
6.84612,1613
6.85183,1911
6.85757,1276
6.86328,1165
6.869,1715
6.87473,1315
6.88045,2169
6.88617,1339
6.8919,1607
6.89762,1720
6.90333,2308
6.90907,1695
6.91478,1454
6.9205,1668
6.92623,1970
6.93195,963
6.93767,2212
6.9434,1049
6.94912,1281
6.95483,1743
6.96057,1445
6.96628,1323
6.972,1437
6.97772,1373
6.98345,1498
6.98917,1511
6.99488,1838
7.00062,1556
7.00633,1699
7.01205,1218
7.01778,1280
7.0235,1937
7.02922,1198
7.03495,1273
7.04067,1778
7.04638,2000
7.05212,1345
7.05783,1503
7.06355,2114
7.06928,1594
7.075,1434
7.08072,2134
7.08645,3383
7.09217,2861
7.09788,4405
7.1036,4677
7.10933,5577
7.11505,5826
7.12077,7473
7.1265,6075
7.13222,6678
7.13793,6022
7.14367,5434
7.14938,4137
7.1551,4232
7.16083,4505
7.16655,3919
7.17227,3413
7.178,3028
7.18372,2336
7.18943,2532
7.19517,2693
7.20088,2044
7.2066,2718
7.21233,2367
7.21805,2227
7.22377,1862
7.22948,1237
7.23522,2178
7.24093,2372
7.24665,1884
7.25238,1518
7.2581,1350
7.26382,1745
7.26955,1909
7.27527,1613
7.28098,2217
7.28672,1831
7.29243,3212
7.29815,3673
7.30388,4969
7.3096,6265
7.31532,6172
7.32105,6378
7.32677,5490
7.33248,3688
7.33822,3406
7.34393,2809
7.34965,2273
7.35537,2453
7.3611,2235
7.36682,2028
7.37253,1953
7.37827,1578
7.38398,1732
7.3897,1701
7.39543,1595
7.40115,2071
7.40687,1625
7.4126,1679
7.41832,1425
7.42403,1696
7.42977,1952
7.43548,1151
7.4412,2109
7.44693,1673
7.45265,1611
7.45837,1444
7.4641,1292
7.46982,1891
7.47553,1448
7.48125,1729
7.48698,1418
7.4927,1350
7.49842,1731
7.50415,1553
7.50987,1508
7.51558,1688
7.52132,1655
7.52703,1936
7.53275,1070
7.53848,1132
7.5442,1531
7.54992,1371
7.55565,1300
7.56137,1427
7.56708,1874
7.57282,1710
7.57853,1048
7.58425,1491
7.58998,1780
7.5957,1130
7.60142,1878
7.60713,907
7.61287,1827
7.61858,1778
7.6243,1293
7.63003,1659
7.63575,2086
7.64147,2717
7.6472,2122
7.65292,1552
7.65863,1808
7.66437,1963
7.67008,1927
7.6758,1906
7.68153,2428
7.68725,1745
7.69297,1238
7.6987,1967
7.70442,1890
7.71013,1753
7.71587,1897
7.72158,1829
7.7273,1963
7.73302,1689
7.73875,2644
7.74447,2337
7.75018,2127
7.75592,2564
7.76163,1727
7.76735,1345
7.77308,1910
7.7788,2262
7.78452,1418
7.79025,1962
7.79597,1775
7.80168,1757
7.80742,1298
7.81313,2706
7.81885,1653
7.82458,1448
7.8303,1641
7.83602,1857
7.84175,1857
7.84747,1669
7.85318,2258
7.8589,1709
7.86463,1081
7.87035,2320
7.87607,1792
7.8818,2221
7.88752,1882
7.89323,1980
7.89897,1522
7.90468,1716
7.9104,1612
7.91613,1612
7.92185,1673
7.92757,2107
7.9333,2311
7.93902,2109
7.94473,1611
7.95047,2023
7.95618,2372
7.9619,2417
7.96763,1869
7.97335,2015
7.97907,2435
7.98478,1750
7.99052,1507
7.99623,1944
8.00195,1606
8.00768,1303
8.0134,1057
8.01912,1950
8.02485,1863
8.03057,2216
8.03628,1455
8.04202,1801
8.04773,2057
8.05345,1814
8.05918,1615
8.0649,1868
8.07062,1797
8.07635,2613
8.08207,2502
8.08778,2094
8.09352,1527
8.09923,1680
8.10495,2126
8.11067,1778
8.1164,2293
8.12212,2381
8.12783,1655
8.13357,1418
8.13928,1864
8.145,1900
8.15073,2391
8.15645,1548
8.16217,2412
8.1679,1976
8.17362,2400
8.17933,2062
8.18507,1643
8.19078,1959
8.1965,1116
8.20223,1777
8.20795,2205
8.21367,1652
8.2194,1825
8.22512,1942
8.23083,2128
8.23655,1595
8.24228,1581
8.248,1821
8.25372,2094
8.25945,1625
8.26517,2125
8.27088,2381
8.27662,2272
8.28233,1597
8.28805,1675
8.29378,1864
8.2995,1852
8.30522,1950
8.31095,2156
8.31667,1981
8.32238,1760
8.32812,2005
8.33383,1805
8.33955,1800
8.34528,1495
8.351,1130
8.35672,1958
8.36243,2372
8.36817,2054
8.37388,1573
8.3796,1506
8.38533,1894
8.39105,2422
8.39677,1637
8.4025,1964
8.40822,1671
8.41393,2043
8.41967,2345
8.42538,2171
8.4311,2282
8.43683,1787
8.44255,1530
8.44827,2304
8.454,2745
8.45972,2395
8.46543,1376
8.47117,2148
8.47688,1914
8.4826,1792
8.48833,2319
8.49405,2097
8.49977,2731
8.50548,1958
8.51122,1343
8.51693,1912
8.52265,1896
8.52838,2122
8.5341,1697
8.53982,2510
8.54555,2811
8.55127,2635
8.55698,2399
8.56272,2157
8.56843,1739
8.57415,2128
8.57988,2499
8.5856,1829
8.59132,2250
8.59705,1767
8.60277,2025
8.60848,2112
8.61422,1657
8.61993,1928
8.62565,2779
8.63137,2912
8.6371,2152
8.64282,2614
8.64853,2766
8.65427,2267
8.65998,2100
8.6657,2296
8.67143,2119
8.67715,2368
8.68287,2049
8.6886,2440
8.69432,2655
8.70003,2050
8.70577,2234
8.71148,3156
8.7172,2086
8.72293,2181
8.72865,2532
8.73437,2455
8.7401,2306
8.74582,2095
8.75153,2534
8.75725,1976
8.76298,2933
8.7687,2747
8.77442,2865
8.78015,2453
8.78587,2020
8.79158,2011
8.79732,2242
8.80303,1720
8.80875,1493
8.81448,1604
8.8202,2632
8.82592,2887
8.83165,2386
8.83737,2941
8.84308,1556
8.84882,2303
8.85453,2395
8.86025,2792
8.86598,2137
8.8717,2531
8.87742,1944
8.88313,3221
8.88887,3029
8.89458,3042
8.9003,2084
8.90603,2341
8.91175,2521
8.91747,2478
8.9232,2629
8.92892,2335
8.93463,2643
8.94037,2232
8.94608,3245
8.9518,2577
8.95753,2694
8.96325,2493
8.96897,2670
8.9747,3210
8.98042,4270
8.98613,7356
8.99187,8992
8.99758,8544
9.0033,7082
9.00902,4983
9.01475,3280
9.02047,2519
9.02618,3351
9.03192,3449
9.03763,2719
9.04335,2768
9.04908,2169
9.0548,2373
9.06052,2253
9.06625,2240
9.07197,2671
9.07768,1912
9.08342,2923
9.08913,2743
9.09485,2604
9.10058,2320
9.1063,2518
9.11202,3253
9.11775,3189
9.12347,3123
9.12918,2590
9.1349,2982
9.14063,2801
9.14635,2844
9.15207,3030
9.1578,2624
9.16352,2273
9.16923,1776
9.17497,2173
9.18068,2176
9.1864,2360
9.19213,2587
9.19785,2178
9.20357,2135
9.2093,2326
9.21502,1882
9.22073,2521
9.22647,3304
9.23218,2670
9.2379,1886
9.24363,3127
9.24935,3081
9.25507,3013
9.26078,2817
9.26652,3171
9.27223,2337
9.27795,3279
9.28368,2829
9.2894,2105
9.29512,2163
9.30085,2439
9.30657,2201
9.31228,2603
9.31802,2474
9.32373,2927
9.32945,2455
9.33518,2028
9.3409,2163
9.34662,2392
9.35235,2488
9.35807,2592
9.36378,2967
9.36952,2411
9.37523,3161
9.38095,3392
9.38667,2926
9.3924,2632
9.39812,2774
9.40383,2335
9.40957,2564
9.41528,1882
9.421,3093
9.42673,3322
9.43245,2395
9.43817,2343
9.4439,2752
9.44962,2725
9.45533,3005
9.46107,2823
9.46678,2682
9.4725,2075
9.47823,2640
9.48395,2219
9.48967,2927
9.4954,2752
9.50112,2140
9.50683,2543
9.51255,2655
9.51828,2530
9.524,2012
9.52972,2696
9.53545,2896
9.54117,2539
9.54688,2945
9.55262,3696
9.55833,2687
9.56405,2307
9.56978,2948
9.5755,2320
9.58122,3164
9.58695,2728
9.59267,2599
9.59838,2187
9.60412,2328
9.60983,2987
9.61555,2529
9.62128,2312
9.627,2338
9.63272,3220
9.63843,2491
9.64417,2536
9.64988,3072
9.6556,3023
9.66133,2552
9.66705,3002
9.67277,2815
9.6785,2600
9.68422,3124
9.68993,2821
9.69567,2603
9.70138,2592
9.7071,3548
9.71283,2369
9.71855,2516
9.72427,2289
9.73,2303
9.73572,2928
9.74143,3536
9.74717,3079
9.75288,3445
9.7586,3157
9.76432,3354
9.77005,2558
9.77577,2071
9.78148,2754
9.78722,3619
9.79293,3342
9.79865,3331
9.80438,2835
9.8101,2725
9.81582,2238
9.82155,3245
9.82727,2288
9.83298,2410
9.83872,2878
9.84443,2095
9.85015,2982
9.85588,3000
9.8616,2768
9.86732,3140
9.87305,2902
9.87877,2301
9.88448,3592
9.8902,2171
9.89593,3811
9.90165,2798
9.90737,3241
9.9131,2882
9.91882,2572
9.92453,3296
9.93027,2629
9.93598,2862
9.9417,2861
9.94743,2613
9.95315,2568
9.95887,2880
9.9646,2794
9.97032,2878
9.97603,2126
9.98177,2508
9.98748,2433
9.9932,3473
9.99893,2322
10.0047,3472
10.0104,2978
10.0161,2118
10.0218,2745
10.0275,3503
10.0333,1993
10.039,2348
10.0447,2523
10.0504,2753
10.0562,2121
10.0619,2405
10.0676,2816
10.0733,3121
10.079,2750
10.0848,3225
10.0905,2665
10.0962,2584
10.1019,2365
10.1077,3436
10.1134,2784
10.1191,2205
10.1248,2433
10.1305,3259
10.1363,3252
10.142,2647
10.1477,2927
10.1534,1866
10.1591,3095
10.1649,2267
10.1706,3074
10.1763,2731
10.182,2799
10.1878,2862
10.1935,2414
10.1992,3127
10.2049,2657
10.2106,2092
10.2164,2172
10.2221,3334
10.2278,2972
10.2335,3269
10.2393,3050
10.245,3389
10.2507,2819
10.2564,2928
10.2621,3507
10.2679,2987
10.2736,2753
10.2793,3008
10.285,2163
10.2908,3069
10.2965,2232
10.3022,2396
10.3079,2831
10.3136,2363
10.3194,2766
10.3251,2006
10.3308,2878
10.3365,1927
10.3423,3094
10.348,2213
10.3537,2986
10.3594,2439
10.3651,3441
10.3709,2520
10.3766,2685
10.3823,2636
10.388,2399
10.3937,2880
10.3995,3117
10.4052,3324
10.4109,2751
10.4166,3690
10.4224,4257
10.4281,6577
10.4338,7683
10.4395,7031
10.4452,5304
10.451,4549
10.4567,3259
10.4624,2762
10.4681,2741
10.4739,3380
10.4796,2600
10.4853,2485
10.491,3055
10.4967,1954
10.5025,2235
10.5082,2858
10.5139,3057
10.5196,2958
10.5254,2546
10.5311,3007
10.5368,2700
10.5425,3184
10.5482,2748
10.554,3365
10.5597,2543
10.5654,2823
10.5711,3516
10.5769,3379
10.5826,3064
10.5883,2736
10.594,6986
10.5997,20079
10.6055,52510
10.6112,114292
10.6169,189912
10.6226,218699
10.6284,168843
10.6341,97197
10.6398,41033
10.6455,18071
10.6512,9804
10.657,8142
10.6627,9867
10.6684,13502
10.6741,12340
10.6798,10727
10.6856,7386
10.6913,5491
10.697,4219
10.7027,3419
10.7085,5005
10.7142,3554
10.7199,3285
10.7256,4018
10.7313,4161
10.7371,3706
10.7428,3969
10.7485,3121
10.7542,3601
10.76,4411
10.7657,3530
10.7714,3474
10.7771,3306
10.7828,3943
10.7886,3713
10.7943,3388
10.8,2661
10.8057,4205
10.8115,3330
10.8172,3676
10.8229,3800
10.8286,5129
10.8343,6608
10.8401,6402
10.8458,7514
10.8515,6196
10.8572,5124
10.863,3958
10.8687,3184
10.8744,3647
10.8801,3558
10.8858,3599
10.8916,3370
10.8973,3856
10.903,3800
10.9087,3151
10.9144,3328
10.9202,2926
10.9259,3023
10.9316,2996
10.9373,4597
10.9431,3845
10.9488,3815
10.9545,3757
10.9602,4085
10.9659,2973
10.9717,4180
10.9774,3828
10.9831,3273
10.9888,2777
10.9946,3661
11.0003,4181
11.006,2916
11.0117,2712
11.0174,3539
11.0232,3333
11.0289,3851
11.0346,3214
11.0403,3974
11.0461,3787
11.0518,3084
11.0575,3579
11.0632,3509
11.0689,2994
11.0747,2865
11.0804,3873
11.0861,3412
11.0918,3306
11.0976,3094
11.1033,3574
11.109,3543
11.1147,3423
11.1204,3611
11.1262,3013
11.1319,3463
11.1376,3979
11.1433,3309
11.149,3842
11.1548,4278
11.1605,4401
11.1662,4042
11.1719,4722
11.1777,3201
11.1834,3354
11.1891,3807
11.1948,4414
11.2005,4340
11.2063,4162
11.212,4022
11.2177,4141
11.2234,4938
11.2292,5172
11.2349,6303
11.2406,6743
11.2463,6908
11.252,7064
11.2578,7365
11.2635,7530
11.2692,7994
11.2749,6766
11.2807,6766
11.2864,6955
11.2921,7160
11.2978,6444
11.3035,7447
11.3093,6924
11.315,6547
11.3207,6731
11.3264,6547
11.3322,6156
11.3379,6983
11.3436,6449
11.3493,6268
11.355,6131
11.3608,6178
11.3665,5130
11.3722,5562
11.3779,6858
11.3837,5449
11.3894,5801
11.3951,5169
11.4008,5395
11.4065,5391
11.4123,5187
11.418,5083
11.4237,5189
11.4294,5581
11.4351,5493
11.4409,5177
11.4466,4074
11.4523,4723
11.458,4710
11.4638,6089
11.4695,5154
11.4752,5330
11.4809,5412
11.4866,5101
11.4924,5283
11.4981,5489
11.5038,5563
11.5095,5703
11.5153,4352
11.521,5500
11.5267,5518
11.5324,4595
11.5381,5024
11.5439,5283
11.5496,5059
11.5553,4803
11.561,4965
11.5668,5683
11.5725,4722
11.5782,4420
11.5839,4658
11.5896,4563
11.5954,3966
11.6011,4187
11.6068,4366
11.6125,5381
11.6183,4131
11.624,4748
11.6297,4023
11.6354,4750
11.6411,5372
11.6469,3678
11.6526,3900
11.6583,3752
11.664,4482
11.6697,4617
11.6755,4027
11.6812,5388
11.6869,5199
11.6926,4845
11.6984,4550
11.7041,5826
11.7098,5357
11.7155,7722
11.7212,8536
11.727,8684
11.7327,7235
11.7384,4337
11.7441,4485
11.7499,4485
11.7556,4715
11.7613,4582
11.767,4898
11.7727,4308
11.7785,3979
11.7842,4966
11.7899,4204
11.7956,4266
11.8014,3504
11.8071,4127
11.8128,4105
11.8185,4579
11.8242,3579
11.83,3528
11.8357,4266
11.8414,4979
11.8471,4246
11.8529,4158
11.8586,4753
11.8643,4583
11.87,4705
11.8757,4436
11.8815,4026
11.8872,3725
11.8929,4579
11.8986,4151
11.9043,4055
11.9101,4134
11.9158,4552
11.9215,4377
11.9272,4094
11.933,4544
11.9387,3115
11.9444,3623
11.9501,3856
11.9558,4576
11.9616,4211
11.9673,4572
11.973,4453
11.9787,3688
11.9845,4284
11.9902,4523
11.9959,3876
12.0016,4476
12.0073,4839
12.0131,4107
12.0188,5138
12.0245,4397
12.0302,4618
12.036,4428
12.0417,4772
12.0474,4756
12.0531,4110
12.0588,4884
12.0646,4119
12.0703,4722
12.076,3445
12.0817,3493
12.0875,4061
12.0932,3943
12.0989,3874
12.1046,4995
12.1103,6466
12.1161,7511
12.1218,9291
12.1275,10993
12.1332,11698
12.139,8929
12.1447,5556
12.1504,5372
12.1561,4603
12.1618,4283
12.1676,4861
12.1733,4846
12.179,4583
12.1847,4244
12.1904,5039
12.1962,4650
12.2019,4875
12.2076,4484
12.2133,4173
12.2191,4928
12.2248,4657
12.2305,5204
12.2362,3838
12.2419,3379
12.2477,5425
12.2534,4539
12.2591,3926
12.2648,4328
12.2706,4794
12.2763,4228
12.282,4899
12.2877,4835
12.2934,4440
12.2992,4942
12.3049,5331
12.3106,4694
12.3163,4902
12.3221,4851
12.3278,5591
12.3335,4926
12.3392,5818
12.3449,4949
12.3507,5779
12.3564,4974
12.3621,5043
12.3678,5759
12.3736,5418
12.3793,6453
12.385,6032
12.3907,5910
12.3964,5487
12.4022,6690
12.4079,6630
12.4136,6637
12.4193,7755
12.425,8722
12.4308,6039
12.4365,7508
12.4422,7046
12.4479,7201
12.4537,7785
12.4594,8325
12.4651,7595
12.4708,9132
12.4765,7459
12.4823,8530
12.488,9167
12.4937,9076
12.4994,8970
12.5052,7482
12.5109,7539
12.5166,8283
12.5223,8861
12.528,9035
12.5338,9791
12.5395,8363
12.5452,8585
12.5509,7575
12.5567,7561
12.5624,8272
12.5681,8571
12.5738,8014
12.5795,8065
12.5853,7116
12.591,7503
12.5967,7990
12.6024,8690
12.6082,8244
12.6139,9211
12.6196,9569
12.6253,8555
12.631,9236
12.6368,9031
12.6425,9559
12.6482,9426
12.6539,9708
12.6597,9790
12.6654,8824
12.6711,9666
12.6768,9997
12.6825,9613
12.6883,8959
12.694,8584
12.6997,8883
12.7054,9959
12.7111,8905
12.7169,8209
12.7226,8054
12.7283,9109
12.734,9475
12.7398,8961
12.7455,8874
12.7512,8115
12.7569,8262
12.7626,7768
12.7684,7715
12.7741,8666
12.7798,9779
12.7855,7814
12.7913,9502
12.797,8434
12.8027,10065
12.8084,9600
12.8141,9433
12.8199,8843
12.8256,8317
12.8313,7911
12.837,8675
12.8428,9048
12.8485,9262
12.8542,8386
12.8599,8816
12.8656,8870
12.8714,8246
12.8771,8009
12.8828,9243
12.8885,10611
12.8943,11761
12.9,12658
12.9057,10680
12.9114,10541
12.9171,9613
12.9229,8472
12.9286,7885
12.9343,8945
12.94,8970
12.9457,8122
12.9515,9016
12.9572,8300
12.9629,8588
12.9686,8361
12.9744,7912
12.9801,8573
12.9858,8578
12.9915,7681
12.9972,8241
13.003,7392
13.0087,8713
13.0144,8589
13.0201,8631
13.0259,7945
13.0316,7997
13.0373,8082
13.043,7665
13.0487,7452
13.0545,7431
13.0602,6694
13.0659,7590
13.0716,7920
13.0774,7277
13.0831,7740
13.0888,8233
13.0945,7626
13.1002,7710
13.106,7648
13.1117,6759
13.1174,7704
13.1231,7444
13.1289,7791
13.1346,7387
13.1403,6874
13.146,8132
13.1517,7950
13.1575,7564
13.1632,6801
13.1689,8066
13.1746,6876
13.1803,7204
13.1861,8310
13.1918,7716
13.1975,7275
13.2032,7900
13.209,6507
13.2147,7206
13.2204,7838
13.2261,8092
13.2318,6879
13.2376,7006
13.2433,6952
13.249,7176
13.2547,7492
13.2605,7042
13.2662,7506
13.2719,6580
13.2776,7284
13.2833,6907
13.2891,6646
13.2948,6452
13.3005,8239
13.3062,6132
13.312,7178
13.3177,7771
13.3234,8446
13.3291,7977
13.3348,8139
13.3406,7955
13.3463,7583
13.352,7581
13.3577,7592
13.3635,7865
13.3692,7915
13.3749,7936
13.3806,7585
13.3863,7309
13.3921,8633
13.3978,7951
13.4035,8695
13.4092,7959
13.415,7961
13.4207,7692
13.4264,8608
13.4321,7579
13.4378,8409
13.4436,8096
13.4493,8891
13.455,7726
13.4607,8357
13.4664,8593
13.4722,8798
13.4779,8304
13.4836,7695
13.4893,7345
13.4951,8724
13.5008,7866
13.5065,7738
13.5122,8448
13.5179,7570
13.5237,8486
13.5294,8363
13.5351,7339
13.5408,7561
13.5466,8940
13.5523,7831
13.558,7437
13.5637,7186
13.5694,8418
13.5752,9347
13.5809,9444
13.5866,9028
13.5923,8833
13.5981,8960
13.6038,8957
13.6095,8177
13.6152,8939
13.6209,9093
13.6267,9492
13.6324,7892
13.6381,8517
13.6438,8260
13.6496,8193
13.6553,8675
13.661,7967
13.6667,8835
13.6724,8355
13.6782,7623
13.6839,7931
13.6896,7797
13.6953,8805
13.701,8051
13.7068,8310
13.7125,7888
13.7182,8180
13.7239,8048
13.7297,7576
13.7354,8203
13.7411,8711
13.7468,8763
13.7525,7729
13.7583,7445
13.764,8124
13.7697,8637
13.7754,7217
13.7812,6767
13.7869,7484
13.7926,7199
13.7983,7188
13.804,6934
13.8098,8156
13.8155,7972
13.8212,7535
13.8269,7498
13.8327,8320
13.8384,7613
13.8441,7266
13.8498,8644
13.8555,7603
13.8613,7637
13.867,7689
13.8727,7689
13.8784,8517
13.8842,8806
13.8899,8063
13.8956,7074
13.9013,8084
13.907,7879
13.9128,7412
13.9185,8383
13.9242,6827
13.9299,7339
13.9356,7725
13.9414,8231
13.9471,8715
13.9528,10225
13.9585,9738
13.9643,10361
13.97,12026
13.9757,10603
13.9814,9401
13.9871,8728
13.9929,8921
13.9986,7218
14.0043,7702
14.01,7676
14.0158,8106
14.0215,7641
14.0272,8369
14.0329,7065
14.0386,8041
14.0444,8141
14.0501,7368
14.0558,7910
14.0615,7534
14.0673,7419
14.073,7814
14.0787,7781
14.0844,8305
14.0901,7979
14.0959,9048
14.1016,8377
14.1073,8644
14.113,8442
14.1188,7375
14.1245,8676
14.1302,8615
14.1359,8674
14.1416,8772
14.1474,9744
14.1531,10331
14.1588,10007
14.1645,8531
14.1703,8737
14.176,8230
14.1817,8713
14.1874,8581
14.1931,8901
14.1989,8117
14.2046,7278
14.2103,8559
14.216,9164
14.2217,8189
14.2275,8655
14.2332,8405
14.2389,8415
14.2446,8763
14.2504,8279
14.2561,8943
14.2618,8303
14.2675,8315
14.2732,7610
14.279,8407
14.2847,7783
14.2904,8215
14.2961,8682
14.3019,8800
14.3076,9503
14.3133,8570
14.319,9646
14.3247,10184
14.3305,8337
14.3362,8318
14.3419,9123
14.3476,9195
14.3534,9851
14.3591,9482
14.3648,9825
14.3705,9565
14.3762,9492
14.382,9085
14.3877,10205
14.3934,10349
14.3991,8891
14.4049,8710
14.4106,9320
14.4163,9500
14.422,8287
14.4277,10261
14.4335,10153
14.4392,10388
14.4449,9909
14.4506,9962
14.4563,10461
14.4621,9989
14.4678,10534
14.4735,9690
14.4792,11282
14.485,10229
14.4907,11506
14.4964,9765
14.5021,10628
14.5078,9409
14.5136,9674
14.5193,9468
14.525,10178
14.5307,9415
14.5365,11144
14.5422,11221
14.5479,9732
14.5536,10786
14.5593,10577
14.5651,9679
14.5708,10886
14.5765,10130
14.5822,10500
14.588,11245
14.5937,11964
14.5994,10950
14.6051,10681
14.6108,9781
14.6166,10676
14.6223,11958
14.628,11147
14.6337,10916
14.6395,11629
14.6452,10833
14.6509,11405
14.6566,11474
14.6623,10225
14.6681,11570
14.6738,10928
14.6795,10457
14.6852,12497
14.6909,12598
14.6967,11793
14.7024,10896
14.7081,11941
14.7138,12177
14.7196,12301
14.7253,12673
14.731,11711
14.7367,11339
14.7424,12992
14.7482,12074
14.7539,11992
14.7596,11906
14.7653,11594
14.7711,12562
14.7768,12134
14.7825,12385
14.7882,12377
14.7939,12699
14.7997,12493
14.8054,12815
14.8111,12627
14.8168,13033
14.8226,12483
14.8283,14225
14.834,12576
14.8397,13276
14.8454,12754
14.8512,13311
14.8569,13793
14.8626,11804
14.8683,14178
14.8741,11971
14.8798,14006
14.8855,14471
14.8912,14634
14.8969,13701
14.9027,12533
14.9084,15135
14.9141,14740
14.9198,13093
14.9256,14183
14.9313,14959
14.937,15822
14.9427,16084
14.9484,16863
14.9542,18348
14.9599,19033
14.9656,19176
14.9713,16240
14.977,17816
14.9828,16377
14.9885,15960
14.9942,13541
14.9999,15215
15.0057,14835
15.0114,14906
15.0171,14505
15.0228,14583
15.0285,15525
15.0343,15637
15.04,15830
15.0457,14790
15.0514,16492
15.0572,15148
15.0629,15292
15.0686,16296
15.0743,15288
15.08,16854
15.0858,17038
15.0915,16186
15.0972,15553
15.1029,14766
15.1087,16215
15.1144,16357
15.1201,15271
15.1258,17613
15.1315,18639
15.1373,16883
15.143,18054
15.1487,17338
15.1544,17600
15.1602,18068
15.1659,17967
15.1716,17066
15.1773,17876
15.183,18939
15.1888,16801
15.1945,16105
15.2002,17905
15.2059,17684
15.2116,18377
15.2174,17982
15.2231,19423
15.2288,18382
15.2345,19452
15.2403,18440
15.246,18679
15.2517,19146
15.2574,18588
15.2631,18420
15.2689,17395
15.2746,20079
15.2803,19985
15.286,19703
15.2918,18250
15.2975,19960
15.3032,19272
15.3089,19460
15.3146,19825
15.3204,19435
15.3261,20401
15.3318,20996
15.3375,20911
15.3433,21499
15.349,20791
15.3547,19000
15.3604,21016
15.3661,20837
15.3719,21005
15.3776,22237
15.3833,20784
15.389,19962
15.3948,20694
15.4005,21842
15.4062,22717
15.4119,20865
15.4176,22447
15.4234,22065
15.4291,21763
15.4348,22189
15.4405,21291
15.4462,23441
15.452,22368
15.4577,21287
15.4634,21900
15.4691,22786
15.4749,22926
15.4806,23496
15.4863,23118
15.492,24464
15.4977,23469
15.5035,23745
15.5092,23890
15.5149,23402
15.5206,24645
15.5264,24868
15.5321,24524
15.5378,24087
15.5435,23700
15.5492,23508
15.555,24101
15.5607,23887
15.5664,23584
15.5721,24898
15.5779,24953
15.5836,24849
15.5893,23583
15.595,25000
15.6007,26035
15.6065,25094
15.6122,25581
15.6179,26763
15.6236,29066
15.6294,27210
15.6351,27744
15.6408,25978
15.6465,26274
15.6522,26238
15.658,27541
15.6637,25874
15.6694,27881
15.6751,27650
15.6809,28629
15.6866,28906
15.6923,29735
15.698,27012
15.7037,29004
15.7095,29942
15.7152,30056
15.7209,29858
15.7266,29471
15.7323,30591
15.7381,30586
15.7438,28796
15.7495,29810
15.7552,30631
15.761,28201
15.7667,29184
15.7724,29916
15.7781,29673
15.7838,31466
15.7896,31297
15.7953,31165
15.801,31161
15.8067,31228
15.8125,32754
15.8182,32086
15.8239,31411
15.8296,31387
15.8353,31398
15.8411,33478
15.8468,32549
15.8525,32727
15.8582,31805
15.864,34995
15.8697,35522
15.8754,33161
15.8811,37847
15.8868,37364
15.8926,38922
15.8983,38164
15.904,36074
15.9097,33404
15.9155,35091
15.9212,33890
15.9269,36030
15.9326,35238
15.9383,34058
15.9441,35270
15.9498,35325
15.9555,36594
15.9612,34424
15.9669,34358
15.9727,36375
15.9784,33678
15.9841,35922
15.9898,37645
15.9956,36651
16.0013,35520
16.007,36082
16.0127,38821
16.0184,34954
16.0242,36328
16.0299,38303
16.0356,39381
16.0413,36201
16.047,37728
16.0528,36051
16.0585,38766
16.0642,37147
16.0699,38069
16.0757,36494
16.0814,38857
16.0871,39236
16.0928,38583
16.0985,40086
16.1043,37438
16.11,42147
16.1157,40044
16.1214,42025
16.1272,41012
16.1329,40407
16.1386,42725
16.1443,40124
16.1501,42832
16.1558,42429
16.1615,43701
16.1672,44994
16.1729,43937
16.1787,44214
16.1844,44237
16.1901,47840
16.1958,45267
16.2016,46310
16.2073,46679
16.213,44739
16.2187,43322
16.2244,46736
16.2301,43254
16.2359,44443
16.2416,44880
16.2473,47131
16.253,46743
16.2588,43623
16.2645,45503
16.2702,45901
16.2759,45614
16.2816,44971
16.2874,46144
16.2931,44612
16.2988,46569
16.3045,44861
16.3103,46171
16.316,48340
16.3217,46654
16.3274,47143
16.3332,46175
16.3389,48316
16.3446,49230
16.3503,47824
16.356,48639
16.3618,49611
16.3675,49100
16.3732,47941
16.3789,48381
16.3847,50018
16.3904,51901
16.3961,51167
16.4018,49911
16.4075,49250
16.4133,51318
16.419,48503
16.4247,51611
16.4304,51973
16.4362,53621
16.4419,53171
16.4476,51680
16.4533,52314
16.459,50764
16.4647,52576
16.4705,53938
16.4762,57733
16.4819,55378
16.4876,53100
16.4934,56977
16.4991,55682
16.5048,54582
16.5105,55092
16.5162,57301
16.522,54053
16.5277,54941
16.5334,55262
16.5391,54420
16.5449,57812
16.5506,57821
16.5563,57885
16.562,57575
16.5678,57035
16.5735,58649
16.5792,57329
16.5849,58705
16.5906,58550
16.5964,57569
16.6021,58017
16.6078,58380
16.6135,58765
16.6193,59646
16.625,61898
16.6307,59489
16.6364,62108
16.6421,60660
16.6478,60318
16.6536,60929
16.6593,63583
16.665,59959
16.6708,61728
16.6765,64393
16.6822,64526
16.6879,62691
16.6936,64056
16.6993,62842
16.7051,63342
16.7108,63646
16.7165,63500
16.7222,64286
16.728,66912
16.7337,65592
16.7394,67704
16.7451,68422
16.7509,69271
16.7566,71139
16.7623,72424
16.768,71062
16.7737,69517
16.7795,71386
16.7852,66332
16.7909,68657
16.7966,67779
16.8024,69808
16.8081,70894
16.8138,71254
16.8195,71465
16.8252,71655
16.831,71832
16.8367,72473
16.8424,71784
16.8481,73376
16.8539,72012
16.8596,72949
16.8653,75789
16.871,75311
16.8767,75112
16.8824,76063
16.8882,74735
16.8939,75946
16.8996,74319
16.9053,72930
16.9111,74032
16.9168,74273
16.9225,78055
16.9282,74960
16.9339,76463
16.9397,80899
16.9454,76681
16.9511,77115
16.9568,78121
16.9626,78863
16.9683,78387
16.974,78932
16.9797,77952
16.9855,80103
16.9912,77963
16.9969,78580
17.0026,80786
17.0083,79267
17.0141,81879
17.0198,80654
17.0255,81102
17.0312,84104
17.037,82649
17.0427,83451
17.0484,83969
17.0541,83814
17.0598,83888
17.0656,84295
17.0713,87369
17.077,83237
17.0827,84817
17.0885,82485
17.0942,83215
17.0999,84629
17.1056,83797
17.1113,84402
17.117,85184
17.1228,85376
17.1285,85812
17.1342,87295
17.1399,86112
17.1457,84135
17.1514,84296
17.1571,86040
17.1628,85999
17.1686,86614
17.1743,87566
17.18,88588
17.1857,88771
17.1915,90582
17.1972,86915
17.2029,88016
17.2086,87380
17.2143,90270
17.2201,88993
17.2258,86769
17.2315,89083
17.2372,91745
17.2429,93280
17.2487,89695
17.2544,89695
17.2601,90843
17.2658,91886
17.2716,95450
17.2773,92520
17.283,92952
17.2887,93276
17.2944,93683
17.3002,92972
17.3059,92235
17.3116,94822
17.3173,95273
17.323,94777
17.3288,95926
17.3345,98597
17.3402,98123
17.3459,94309
17.3516,96041
17.3574,94819
17.3631,94719
17.3688,94802
17.3745,96353
17.3803,95871
17.386,94834
17.3917,98812
17.3974,98465
17.4032,98150
17.4089,97537
17.4146,98334
17.4203,98444
17.4261,97783
17.4318,97119
17.4375,99616
17.4432,97424
17.4489,100017
17.4547,97187
17.4604,98228
17.4661,100825
17.4718,101426
17.4775,100980
17.4833,99686
17.489,98394
17.4947,103510
17.5004,102079
17.5062,103638
17.5119,100724
17.5176,100800
17.5233,102558
17.529,102652
17.5348,100860
17.5405,101356
17.5462,100485
17.5519,98083
17.5577,102433
17.5634,103298
17.5691,102162
17.5748,104479
17.5805,103500
17.5863,107669
17.592,105093
17.5977,106522
17.6034,107888
17.6092,109953
17.6149,109248
17.6206,106086
17.6263,106672
17.632,105249
17.6378,103934
17.6435,107022
17.6492,105104
17.6549,106111
17.6607,103681
17.6664,104656
17.6721,106641
17.6778,102345
17.6835,106423
17.6893,107171
17.695,105202
17.7007,106073
17.7064,104362
17.7122,104748
17.7179,105505
17.7236,105314
17.7293,107439
17.735,104705
17.7408,106730
17.7465,105960
17.7522,104039
17.7579,107098
17.7636,110613
17.7694,106595
17.7751,107406
17.7808,107900
17.7865,106537
17.7922,108837
17.798,108812
17.8037,104329
17.8094,109029
17.8151,107001
17.8209,106836
17.8266,108641
17.8323,106180
17.838,109137
17.8438,107466
17.8495,109742
17.8552,107710
17.8609,111311
17.8666,109143
17.8724,108816
17.8781,109146
17.8838,107593
17.8895,111223
17.8953,112679
17.901,110523
17.9067,111069
17.9124,114460
17.9181,111987
17.9239,110436
17.9296,110114
17.9353,113418
17.941,113566
17.9468,113475
17.9525,110064
17.9582,112319
17.9639,111035
17.9696,110781
17.9754,113638
17.9811,111721
17.9868,107732
17.9925,110871
