C:\MSDCHEM\1\DATA\JAMES C\20180125 LACTONE WITH BME AND HYDROXYLAMINE\F 20min.d 25 Jan 18   5:20 pm
Start of data points
3.09253,13767
3.09825,13307
3.10398,13063
3.1097,13336
3.11542,12533
3.12115,13251
3.12687,13906
3.13258,12129
3.1383,14532
3.14403,13822
3.14975,12989
3.15547,12662
3.1612,13562
3.16692,12874
3.17263,12422
3.17837,12386
3.18408,12797
3.1898,12345
3.19553,12140
3.20125,12090
3.20697,12270
3.2127,11892
3.21842,13241
3.22413,12498
3.22987,11903
3.23558,12817
3.2413,13109
3.24703,13390
3.25275,11980
3.25847,11797
3.26418,11220
3.26992,12876
3.27563,11636
3.28135,11994
3.28708,11069
3.2928,11461
3.29852,9967
3.30425,10609
3.30997,10531
3.31568,10667
3.32142,11257
3.32713,10380
3.33285,9973
3.33858,9224
3.3443,8851
3.35002,9483
3.35575,9732
3.36147,9656
3.36718,9300
3.37292,8838
3.37863,9459
3.38435,8855
3.39007,8773
3.3958,9634
3.40152,9044
3.40723,9307
3.41297,8789
3.41868,9032
3.4244,7946
3.43013,9654
3.43585,9265
3.44157,8130
3.4473,7133
3.45302,8029
3.45873,7595
3.46447,7693
3.47018,6451
3.4759,7625
3.48163,7811
3.48735,7641
3.49307,7057
3.4988,6467
3.50452,7789
3.51023,7169
3.51595,7154
3.52168,7673
3.5274,6308
3.53312,7670
3.53885,7616
3.54457,6958
3.55028,7736
3.55602,8051
3.56173,7261
3.56745,7342
3.57318,7579
3.5789,7310
3.58462,6740
3.59035,6746
3.59607,7188
3.60178,5985
3.60752,6652
3.61323,6289
3.61895,6165
3.62468,6834
3.6304,6323
3.63612,6977
3.64183,6892
3.64757,6273
3.65328,6762
3.659,5352
3.66473,6059
3.67045,6689
3.67617,5322
3.6819,5730
3.68762,5851
3.69333,6415
3.69907,6370
3.70478,5855
3.7105,6271
3.71623,5701
3.72195,6627
3.72767,6393
3.7334,5521
3.73912,5499
3.74483,6236
3.75057,6323
3.75628,6312
3.762,5861
3.76772,5191
3.77345,5893
3.77917,6017
3.78488,5114
3.79062,6363
3.79633,5551
3.80205,5759
3.80778,5344
3.8135,5599
3.81922,5941
3.82495,4774
3.83067,5598
3.83638,5426
3.84212,5435
3.84783,4943
3.85355,5185
3.85928,5664
3.865,4292
3.87072,5131
3.87645,4944
3.88217,5267
3.88788,5068
3.8936,5050
3.89933,4953
3.90505,4424
3.91077,4512
3.9165,4125
3.92222,5199
3.92793,5106
3.93367,5648
3.93938,6004
3.9451,4307
3.95083,5071
3.95655,5045
3.96227,4474
3.968,4987
3.97372,4678
3.97943,4746
3.98517,4596
3.99088,4012
3.9966,5226
4.00233,5163
4.00805,5030
4.01377,4971
4.0195,4268
4.02522,3454
4.03093,3769
4.03665,4521
4.04238,4600
4.0481,4697
4.05382,5261
4.05955,4009
4.06527,4459
4.07098,5170
4.07672,3652
4.08243,4053
4.08815,3898
4.09388,3980
4.0996,4076
4.10532,3239
4.11105,4533
4.11677,4459
4.12248,4511
4.12822,2974
4.13393,4889
4.13965,3989
4.14538,4275
4.1511,3696
4.15682,3805
4.16253,5048
4.16827,4866
4.17398,4015
4.1797,4911
4.18543,4107
4.19115,4621
4.19687,4375
4.2026,4622
4.20832,4504
4.21403,4158
4.21977,3537
4.22548,3850
4.2312,4139
4.23693,3928
4.24265,3557
4.24837,3213
4.2541,4135
4.25982,3959
4.26553,2881
4.27127,3465
4.27698,3936
4.2827,4719
4.28842,3882
4.29415,2858
4.29987,3799
4.30558,4277
4.31132,3754
4.31703,4012
4.32275,4174
4.32848,3700
4.3342,4604
4.33992,4707
4.34565,4992
4.35137,4485
4.35708,4396
4.36282,4800
4.36853,4788
4.37425,4699
4.37998,5525
4.3857,4872
4.39142,5090
4.39715,6540
4.40287,5235
4.40858,4668
4.4143,4361
4.42003,5507
4.42575,5656
4.43147,5906
4.4372,5458
4.44292,5484
4.44863,4776
4.45437,4821
4.46008,5480
4.4658,4017
4.47153,4530
4.47725,4812
4.48297,3824
4.4887,4642
4.49442,6050
4.50013,5001
4.50587,5264
4.51158,4683
4.5173,4548
4.52303,4983
4.52875,4469
4.53447,3741
4.54018,4454
4.54592,4312
4.55163,4606
4.55735,4550
4.56308,3989
4.5688,4296
4.57452,4287
4.58025,4228
4.58597,4260
4.59168,3325
4.59742,3595
4.60313,4046
4.60885,3945
4.61458,3071
4.6203,4164
4.62602,3245
4.63175,3342
4.63747,3570
4.64318,3928
4.64892,3639
4.65463,4054
4.66035,2952
4.66607,3896
4.6718,3154
4.67752,3826
4.68323,3612
4.68897,3240
4.69468,3522
4.7004,2767
4.70613,3095
4.71185,3366
4.71757,3591
4.7233,2509
4.72902,2588
4.73473,2931
4.74047,3636
4.74618,2393
4.7519,3729
4.75763,2740
4.76335,2617
4.76907,2427
4.7748,2252
4.78052,2561
4.78623,4020
4.79195,2416
4.79768,3927
4.8034,2730
4.80912,3100
4.81485,2604
4.82057,3894
4.82628,3084
4.83202,2965
4.83773,1903
4.84345,3287
4.84918,3082
4.8549,3127
4.86062,2989
4.86635,3121
4.87207,3331
4.87778,3193
4.88352,3284
4.88923,2838
4.89495,2747
4.90068,2808
4.9064,3254
4.91212,2404
4.91783,2715
4.92357,3270
4.92928,3132
4.935,2324
4.94073,3266
4.94645,2743
4.95217,2809
4.9579,2799
4.96362,2639
4.96933,3083
4.97507,2915
4.98078,2510
4.9865,2624
4.99223,2293
4.99795,2931
5.00367,2476
5.0094,3113
5.01512,3361
5.02083,2988
5.02657,3446
5.03228,2078
5.038,3050
5.04372,2468
5.04945,2315
5.05517,2898
5.06088,3153
5.06662,3412
5.07233,2474
5.07805,3045
5.08378,2638
5.0895,2026
5.09522,1972
5.10095,2923
5.10667,2209
5.11238,2378
5.11812,2849
5.12383,3472
5.12955,3107
5.13528,2448
5.141,2903
5.14672,1943
5.15245,1934
5.15817,1954
5.16388,2510
5.1696,2745
5.17533,2634
5.18105,2896
5.18677,2143
5.1925,4084
5.19822,2971
5.20393,2278
5.20967,2133
5.21538,1987
5.2211,2469
5.22683,2210
5.23255,2723
5.23827,2417
5.244,2662
5.24972,2563
5.25543,2088
5.26117,2379
5.26688,2524
5.2726,2117
5.27833,2454
5.28405,2453
5.28977,2217
5.29548,2315
5.30122,2899
5.30693,2035
5.31265,2295
5.31838,2025
5.3241,1835
5.32982,2642
5.33555,2736
5.34127,2607
5.34698,2418
5.35272,2206
5.35843,2236
5.36415,1821
5.36988,2293
5.3756,2555
5.38132,2479
5.38705,2090
5.39277,1847
5.39848,2590
5.40422,3223
5.40993,2726
5.41565,2941
5.42137,2985
5.4271,2578
5.43282,2204
5.43853,2545
5.44427,3737
5.44998,2994
5.4557,3139
5.46143,2962
5.46715,2906
5.47287,2928
5.4786,2388
5.48432,2092
5.49003,2151
5.49577,2175
5.50148,2798
5.5072,3193
5.51293,2470
5.51865,2457
5.52437,2722
5.5301,2251
5.53582,3192
5.54153,2245
5.54725,2335
5.55298,2676
5.5587,2324
5.56442,2112
5.57015,2384
5.57587,2375
5.58158,2484
5.58732,2400
5.59303,2957
5.59875,2580
5.60448,3046
5.6102,2340
5.61592,2668
5.62165,2246
5.62737,2860
5.63308,2663
5.63882,2248
5.64453,2645
5.65025,2440
5.65598,2693
5.6617,2736
5.66742,2746
5.67313,3098
5.67887,2072
5.68458,1796
5.6903,2255
5.69603,2343
5.70175,2595
5.70747,2430
5.7132,2062
5.71892,2128
5.72463,1986
5.73037,1844
5.73608,2482
5.7418,1697
5.74753,2190
5.75325,2144
5.75897,1537
5.7647,2950
5.77042,3597
5.77613,2087
5.78187,2252
5.78758,2454
5.7933,2193
5.79902,2016
5.80475,2542
5.81047,1634
5.81618,2115
5.82192,1782
5.82763,2789
5.83335,1947
5.83908,1351
5.8448,2343
5.85052,1656
5.85625,2039
5.86197,1710
5.86768,2392
5.87342,2570
5.87913,1781
5.88485,2527
5.89058,2412
5.8963,2160
5.90202,2433
5.90775,2215
5.91347,2078
5.91918,2774
5.9249,1482
5.93063,1989
5.93635,1960
5.94207,2841
5.9478,1995
5.95352,1987
5.95923,2461
5.96497,2126
5.97068,2128
5.9764,2274
5.98213,2999
5.98785,2172
5.99357,1607
5.9993,1832
6.00502,2054
6.01073,2140
6.01647,1905
6.02218,1500
6.0279,2362
6.03363,2544
6.03935,1975
6.04507,2305
6.05078,2678
6.05652,3188
6.06223,2938
6.06795,2998
6.07368,2764
6.0794,2974
6.08512,2704
6.09085,2895
6.09657,3784
6.10228,2692
6.10802,2284
6.11373,2513
6.11945,2368
6.12518,2815
6.1309,2584
6.13662,2847
6.14235,1507
6.14807,1636
6.15378,2036
6.15952,3071
6.16523,2210
6.17095,2701
6.17667,2057
6.1824,1455
6.18812,2453
6.19383,2203
6.19957,2539
6.20528,2113
6.211,2264
6.21673,1843
6.22245,2402
6.22817,1449
6.2339,2417
6.23962,2345
6.24533,2191
6.25107,2546
6.25678,2313
6.2625,1882
6.26823,1634
6.27395,2781
6.27967,2603
6.2854,2369
6.29112,2240
6.29683,2803
6.30255,2655
6.30828,2095
6.314,2599
6.31972,2836
6.32545,2443
6.33117,2150
6.33688,2648
6.34262,2687
6.34833,2483
6.35405,2123
6.35978,2287
6.3655,2355
6.37122,2526
6.37695,1844
6.38267,2859
6.38838,2442
6.39412,2703
6.39983,2602
6.40555,2096
6.41128,2582
6.417,2461
6.42272,2461
6.42843,2258
6.43417,2872
6.43988,2906
6.4456,2919
6.45133,2843
6.45705,2428
6.46277,3211
6.4685,3030
6.47422,2808
6.47993,2721
6.48567,3054
6.49138,3442
6.4971,2691
6.50283,3915
6.50855,2638
6.51427,2622
6.52,3302
6.52572,2875
6.53143,3464
6.53717,4088
6.54288,3272
6.5486,2977
6.55432,2965
6.56005,3608
6.56577,3141
6.57148,3173
6.57722,2455
6.58293,2799
6.58865,2862
6.59438,2986
6.6001,2785
6.60582,4376
6.61155,2475
6.61727,3449
6.62298,2534
6.62872,3360
6.63443,3172
6.64015,3449
6.64588,3264
6.6516,2876
6.65732,4238
6.66305,3841
6.66877,3110
6.67448,3494
6.6802,2813
6.68593,4358
6.69165,3167
6.69737,3504
6.7031,3970
6.70882,4075
6.71453,4239
6.72027,3492
6.72598,3858
6.7317,4001
6.73743,3875
6.74315,4456
6.74887,4296
6.7546,4135
6.76032,3363
6.76603,4104
6.77177,4583
6.77748,3822
6.7832,3948
6.78893,3748
6.79465,3655
6.80037,4450
6.80608,3943
6.81182,4603
6.81753,3931
6.82325,3941
6.82898,3947
6.8347,4029
6.84042,3708
6.84615,3794
6.85187,4497
6.85758,3436
6.86332,4363
6.86903,2740
6.87475,3249
6.88048,3608
6.8862,4074
6.89192,3875
6.89765,3892
6.90337,3376
6.90908,3340
6.91482,3298
6.92053,3435
6.92625,3697
6.93197,3429
6.9377,3373
6.94342,2772
6.94913,3291
6.95487,3181
6.96058,3773
6.9663,2902
6.97203,3156
6.97775,3273
6.98347,3009
6.9892,4060
6.99492,3302
7.00063,3351
7.00637,3660
7.01208,3002
7.0178,3977
7.02353,2887
7.02925,3745
7.03497,2720
7.0407,3602
7.04642,3979
7.05213,4001
7.05785,2853
7.06358,4426
7.0693,3250
7.07502,3004
7.08075,3228
7.08647,3999
7.09218,4389
7.09792,4702
7.10363,4995
7.10935,6295
7.11508,8274
7.1208,8159
7.12652,8988
7.13225,8866
7.13797,8055
7.14368,7915
7.14942,7780
7.15513,7381
7.16085,6063
7.16658,6769
7.1723,5349
7.17802,5365
7.18373,4667
7.18947,5087
7.19518,4723
7.2009,4764
7.20663,4215
7.21235,3342
7.21807,3754
7.2238,3409
7.22952,3739
7.23523,3103
7.24097,3779
7.24668,3267
7.2524,2843
7.25813,3720
7.26385,3720
7.26957,3771
7.2753,3487
7.28102,3374
7.28673,3497
7.29247,4662
7.29818,3907
7.3039,5355
7.30962,6302
7.31535,6078
7.32107,5748
7.32678,5286
7.33252,4188
7.33823,4796
7.34395,3474
7.34968,3889
7.3554,4103
7.36112,4107
7.36685,4702
7.37257,3669
7.37828,3691
7.38402,3459
7.38973,3643
7.39545,3384
7.40118,4193
7.4069,3613
7.41262,3404
7.41835,2356
7.42407,2895
7.42978,2951
7.4355,3312
7.44123,3643
7.44695,3161
7.45267,3968
7.4584,3231
7.46412,3502
7.46983,3784
7.47557,4434
7.48128,2834
7.487,3246
7.49273,2943
7.49845,3421
7.50417,4233
7.5099,2865
7.51562,2829
7.52133,3697
7.52707,3651
7.53278,3789
7.5385,3011
7.54423,3657
7.54995,3275
7.55567,4007
7.5614,2579
7.56712,2958
7.57283,3443
7.57855,3324
7.58428,3269
7.59,2338
7.59572,3292
7.60145,2735
7.60717,2328
7.61288,3803
7.61862,2613
7.62433,3084
7.63005,3316
7.63578,3354
7.6415,3371
7.64722,3733
7.65295,3203
7.65867,3720
7.66438,3735
7.67012,3198
7.67583,3700
7.68155,2820
7.68728,3203
7.693,3332
7.69872,3643
7.70443,3773
7.71017,3390
7.71588,3039
7.7216,3956
7.72733,3541
7.73305,3763
7.73877,3312
7.7445,3970
7.75022,3300
7.75593,2892
7.76167,3716
7.76738,3124
7.7731,3635
7.77883,2967
7.78455,3395
7.79027,3772
7.796,2953
7.80172,2857
7.80743,4039
7.81317,3591
7.81888,3912
7.8246,3373
7.83032,3507
7.83605,3495
7.84177,3308
7.84748,3396
7.85322,3681
7.85893,3376
7.86465,3722
7.87038,3223
7.8761,4264
7.88182,3560
7.88755,3158
7.89327,3118
7.89898,3346
7.90472,3742
7.91043,3101
7.91615,3077
7.92188,2911
7.9276,3910
7.93332,3218
7.93905,3411
7.94477,3429
7.95048,3514
7.9562,3441
7.96193,3380
7.96765,2682
7.97337,3678
7.9791,3354
7.98482,2810
7.99053,3198
7.99627,2962
8.00198,3507
8.0077,4013
8.01343,3260
8.01915,3595
8.02487,4208
8.0306,3283
8.03632,3684
8.04203,2755
8.04777,3166
8.05348,3572
8.0592,3745
8.06493,3217
8.07065,3143
8.07637,3060
8.08208,2954
8.08782,3086
8.09353,3317
8.09925,3859
8.10498,3020
8.1107,3306
8.11642,3947
8.12215,3309
8.12787,3608
8.13358,3195
8.13932,3345
8.14503,2880
8.15075,3661
8.15648,3058
8.1622,4011
8.16792,2813
8.17365,4337
8.17937,3534
8.18508,3519
8.19082,2932
8.19653,4083
8.20225,2947
8.20797,3505
8.2137,3340
8.21942,3845
8.22513,3186
8.23087,2760
8.23658,2822
8.2423,3520
8.24803,3873
8.25375,3029
8.25947,3124
8.2652,2862
8.27092,3250
8.27663,3433
8.28237,4159
8.28808,3661
8.2938,3347
8.29953,3278
8.30525,3382
8.31097,3278
8.3167,3251
8.32242,3072
8.32813,3196
8.33385,3734
8.33958,2894
8.3453,2916
8.35102,3175
8.35675,3432
8.36247,3246
8.36818,2979
8.37392,3835
8.37963,3568
8.38535,2915
8.39108,3710
8.3968,3262
8.40252,3376
8.40825,3124
8.41397,3982
8.41968,3103
8.42542,3423
8.43113,3296
8.43685,3203
8.44258,3593
8.4483,3581
8.45402,3352
8.45973,3699
8.46547,2676
8.47118,3514
8.4769,3264
8.48263,3286
8.48835,3439
8.49407,3031
8.4998,3579
8.50552,2590
8.51123,3512
8.51697,3297
8.52268,3043
8.5284,3839
8.53413,3003
8.53985,3899
8.54557,3285
8.5513,3249
8.55702,2706
8.56273,2995
8.56847,3312
8.57418,3487
8.5799,3375
8.58562,2921
8.59135,2812
8.59707,3368
8.60278,3566
8.60852,3546
8.61423,3749
8.61995,2957
8.62568,3077
8.6314,3389
8.63712,3598
8.64285,4491
8.64857,3542
8.65428,3244
8.66002,3287
8.66573,3310
8.67145,4217
8.67718,3043
8.6829,3759
8.68862,3713
8.69435,3085
8.70007,2847
8.70578,2499
8.7115,3418
8.71723,3683
8.72295,3683
8.72867,3545
8.7344,3337
8.74012,3475
8.74583,4571
8.75157,3657
8.75728,2601
8.763,3338
8.76873,3530
8.77445,3454
8.78017,3434
8.7859,3276
8.79162,3524
8.79733,2990
8.80307,2835
8.80878,3788
8.8145,4740
8.82023,3132
8.82595,3307
8.83167,2974
8.83738,3954
8.84312,3287
8.84883,3871
8.85455,3115
8.86028,4202
8.866,3167
8.87172,3368
8.87745,3539
8.88317,3671
8.88888,3543
8.89462,3041
8.90033,3451
8.90605,3597
8.91178,3060
8.9175,3239
8.92322,3993
8.92895,3403
8.93467,4383
8.94038,3430
8.94612,4013
8.95183,3921
8.95755,3377
8.96327,3706
8.969,3250
8.97472,3728
8.98043,3976
8.98617,4519
8.99188,5747
8.9976,5814
9.00333,7104
9.00905,5594
9.01477,5065
9.0205,4310
9.02622,3346
9.03193,3620
9.03767,3170
9.04338,3381
9.0491,3480
9.05483,3951
9.06055,4134
9.06627,4067
9.072,3047
9.07772,3955
9.08343,2908
9.08915,3908
9.09488,3957
9.1006,3457
9.10632,3941
9.11205,3284
9.11777,3506
9.12348,4343
9.12922,3279
9.13493,3134
9.14065,3081
9.14638,2961
9.1521,3235
9.15782,3331
9.16355,4046
9.16927,2759
9.17498,3996
9.18072,3001
9.18643,2977
9.19215,3987
9.19788,3585
9.2036,3626
9.20932,4548
9.21503,3471
9.22077,3186
9.22648,3946
9.2322,3324
9.23793,3554
9.24365,3603
9.24937,3514
9.2551,3587
9.26082,3643
9.26653,3056
9.27227,4244
9.27798,3827
9.2837,3468
9.28943,3737
9.29515,4199
9.30087,3244
9.3066,3538
9.31232,3310
9.31803,3824
9.32377,4049
9.32948,3546
9.3352,3836
9.34092,3433
9.34665,3344
9.35237,3808
9.35808,4405
9.36382,3756
9.36953,3009
9.37525,4234
9.38098,3553
9.3867,3808
9.39242,4307
9.39815,3985
9.40387,3727
9.40958,3537
9.41532,3845
9.42103,3780
9.42675,3561
9.43248,3207
9.4382,2466
9.44392,3474
9.44965,3758
9.45537,4739
9.46108,3193
9.4668,3813
9.47253,3538
9.47825,3330
9.48397,3927
9.4897,3730
9.49542,3828
9.50113,4597
9.50687,3170
9.51258,3355
9.5183,3626
9.52403,3867
9.52975,3537
9.53547,3417
9.5412,4523
9.54692,3771
9.55263,4010
9.55837,4467
9.56408,2752
9.5698,4146
9.57553,4272
9.58125,3237
9.58697,3396
9.59268,4000
9.59842,4380
9.60413,4001
9.60985,4054
9.61558,4345
9.6213,3798
9.62702,3580
9.63275,3164
9.63847,4346
9.64418,4168
9.64992,3797
9.65563,4510
9.66135,4591
9.66708,4123
9.6728,4631
9.67852,3763
9.68425,4529
9.68997,4424
9.69568,3333
9.70142,3759
9.70713,3842
9.71285,4644
9.71857,3354
9.7243,4118
9.73002,4275
9.73573,4958
9.74147,3509
9.74718,3500
9.7529,4115
9.75863,3757
9.76435,4630
9.77007,4092
9.7758,4201
9.78152,3914
9.78723,3512
9.79297,4224
9.79868,3848
9.8044,3584
9.81013,3758
9.81585,3510
9.82157,4506
9.8273,3977
9.83302,4812
9.83873,3068
9.84445,4021
9.85018,3929
9.8559,3788
9.86162,5074
9.86735,3838
9.87307,4159
9.87878,4073
9.88452,3893
9.89023,3708
9.89595,4026
9.90168,4308
9.9074,3758
9.91312,4053
9.91885,4089
9.92457,2769
9.93028,4296
9.93602,3746
9.94173,4017
9.94745,4162
9.95318,3878
9.9589,3835
9.96462,3176
9.97033,3770
9.97607,3812
9.98178,3600
9.9875,3368
9.99323,3652
9.99895,4841
10.0047,4373
10.0104,3738
10.0161,3669
10.0218,4121
10.0276,3815
10.0333,3584
10.039,3400
10.0447,3685
10.0505,4701
10.0562,3874
10.0619,4005
10.0676,3634
10.0733,3081
10.0791,3469
10.0848,3991
10.0905,3333
10.0962,4193
10.102,4079
10.1077,3141
10.1134,2999
10.1191,5024
10.1248,3541
10.1306,4496
10.1363,3304
10.142,3933
10.1477,4105
10.1535,3917
10.1592,3443
10.1649,4619
10.1706,3448
10.1763,4344
10.1821,3742
10.1878,3788
10.1935,4122
10.1992,4674
10.205,3898
10.2107,3797
10.2164,4134
10.2221,3670
10.2278,3551
10.2336,3681
10.2393,4419
10.245,3732
10.2507,4075
10.2564,3318
10.2622,4385
10.2679,3926
10.2736,4436
10.2793,4000
10.2851,4108
10.2908,4043
10.2965,3599
10.3022,3447
10.3079,4347
10.3137,3648
10.3194,4273
10.3251,3448
10.3308,3613
10.3366,3726
10.3423,3415
10.348,3470
10.3537,3846
10.3594,3980
10.3652,4740
10.3709,4342
10.3766,4132
10.3823,4273
10.3881,2992
10.3938,4209
10.3995,4244
10.4052,4164
10.4109,4051
10.4167,4127
10.4224,3832
10.4281,6248
10.4338,6512
10.4396,6788
10.4453,6883
10.451,5099
10.4567,4286
10.4624,4046
10.4682,4809
10.4739,3695
10.4796,3749
10.4853,3877
10.491,4452
10.4968,4217
10.5025,4001
10.5082,4344
10.5139,4177
10.5197,3826
10.5254,4267
10.5311,4613
10.5368,3805
10.5425,3825
10.5483,4421
10.554,4322
10.5597,4477
10.5654,4085
10.5712,4185
10.5769,4220
10.5826,4342
10.5883,4114
10.594,4386
10.5998,5965
10.6055,13468
10.6112,34890
10.6169,88206
10.6227,147884
10.6284,176467
10.6341,144212
10.6398,83827
10.6455,37043
10.6513,16257
10.657,8412
10.6627,7590
10.6684,9327
10.6742,11518
10.6799,11462
10.6856,9991
10.6913,7787
10.697,6114
10.7028,4836
10.7085,5299
10.7142,3860
10.7199,4444
10.7256,5024
10.7314,4293
10.7371,4327
10.7428,3930
10.7485,4654
10.7543,4995
10.76,4403
10.7657,3437
10.7714,4123
10.7771,4258
10.7829,4168
10.7886,4791
10.7943,3355
10.8,3906
10.8058,3757
10.8115,3665
10.8172,4310
10.8229,5153
10.8286,4730
10.8344,5219
10.8401,6766
10.8458,7450
10.8515,7632
10.8573,6000
10.863,5521
10.8687,4615
10.8744,4396
10.8801,4723
10.8859,4767
10.8916,4077
10.8973,5017
10.903,4644
10.9088,4601
10.9145,5360
10.9202,5567
10.9259,4203
10.9316,4954
10.9374,5669
10.9431,2934
10.9488,4884
10.9545,4662
10.9603,3608
10.966,4836
10.9717,3857
10.9774,4514
10.9831,4651
10.9889,4606
10.9946,4735
11.0003,4270
11.006,4474
11.0117,5077
11.0175,4817
11.0232,4963
11.0289,4576
11.0346,5338
11.0404,4219
11.0461,4502
11.0518,5076
11.0575,4008
11.0632,4524
11.069,4508
11.0747,4978
11.0804,4450
11.0861,4856
11.0919,4562
11.0976,5431
11.1033,4849
11.109,4697
11.1147,5390
11.1205,4792
11.1262,5024
11.1319,5257
11.1376,4976
11.1434,4327
11.1491,4919
11.1548,4352
11.1605,4911
11.1662,4851
11.172,4554
11.1777,5132
11.1834,4278
11.1891,4302
11.1949,5343
11.2006,4550
11.2063,4695
11.212,5003
11.2177,5820
11.2235,5715
11.2292,7486
11.2349,8300
11.2406,8247
11.2463,9143
11.2521,9207
11.2578,9279
11.2635,10166
11.2692,8999
11.275,9312
11.2807,9637
11.2864,8461
11.2921,8855
11.2978,8853
11.3036,9045
11.3093,8011
11.315,8007
11.3207,7961
11.3265,8283
11.3322,8059
11.3379,7376
11.3436,7914
11.3493,7500
11.3551,6873
11.3608,7303
11.3665,7474
11.3722,6266
11.378,7302
11.3837,7143
11.3894,6613
11.3951,7131
11.4008,7001
11.4066,6725
11.4123,6724
11.418,7140
11.4237,7153
11.4295,6975
11.4352,6532
11.4409,6554
11.4466,7702
11.4523,6736
11.4581,7017
11.4638,6912
11.4695,7051
11.4752,7256
11.481,6708
11.4867,7101
11.4924,6800
11.4981,6910
11.5038,6857
11.5096,6572
11.5153,5594
11.521,5891
11.5267,5449
11.5324,5950
11.5382,6317
11.5439,5701
11.5496,6483
11.5553,6383
11.5611,5451
11.5668,5971
11.5725,6110
11.5782,5133
11.5839,5999
11.5897,6015
11.5954,6022
11.6011,6215
11.6068,5686
11.6126,5813
11.6183,5977
11.624,4659
11.6297,6412
11.6354,6017
11.6412,5309
11.6469,5899
11.6526,5560
11.6583,5652
11.6641,5201
11.6698,5750
11.6755,5845
11.6812,5347
11.6869,5991
11.6927,5536
11.6984,5578
11.7041,5745
11.7098,6274
11.7156,7509
11.7213,7337
11.727,7857
11.7327,7080
11.7384,5583
11.7442,6279
11.7499,5743
11.7556,6113
11.7613,5745
11.767,6376
11.7728,6438
11.7785,5502
11.7842,5430
11.7899,5453
11.7957,5738
11.8014,5458
11.8071,6530
11.8128,5230
11.8185,5263
11.8243,5486
11.83,5313
11.8357,6141
11.8414,5801
11.8472,5253
11.8529,5316
11.8586,6342
11.8643,5436
11.87,5731
11.8758,5496
11.8815,5335
11.8872,4784
11.8929,4693
11.8987,5292
11.9044,5526
11.9101,5329
11.9158,5442
11.9215,5385
11.9273,5119
11.933,6216
11.9387,6117
11.9444,5099
11.9502,6160
11.9559,6088
11.9616,5843
11.9673,5119
11.973,5625
11.9788,4760
11.9845,4926
11.9902,5145
11.9959,5348
12.0016,5370
12.0074,5663
12.0131,5617
12.0188,6046
12.0245,5322
12.0303,6631
12.036,5785
12.0417,5048
12.0474,5711
12.0531,5819
12.0589,5246
12.0646,5867
12.0703,5754
12.076,6568
12.0818,5620
12.0875,5948
12.0932,5680
12.0989,5713
12.1046,5118
12.1104,6135
12.1161,5935
12.1218,7364
12.1275,10465
12.1333,10812
12.139,12109
12.1447,10351
12.1504,7892
12.1561,6097
12.1619,5939
12.1676,5848
12.1733,5294
12.179,5684
12.1848,5245
12.1905,6044
12.1962,5976
12.2019,6131
12.2076,6338
12.2134,5948
12.2191,6183
12.2248,6283
12.2305,5605
12.2363,5534
12.242,5689
12.2477,5106
12.2534,5628
12.2591,5222
12.2649,5687
12.2706,4934
12.2763,6018
12.282,6101
12.2877,5767
12.2935,5467
12.2992,6129
12.3049,6778
12.3106,6436
12.3164,6609
12.3221,7020
12.3278,6718
12.3335,6964
12.3392,5554
12.345,6573
12.3507,6034
12.3564,6820
12.3621,6331
12.3679,6641
12.3736,6909
12.3793,6863
12.385,7381
12.3907,6625
12.3965,7981
12.4022,7690
12.4079,7978
12.4136,8341
12.4194,6861
12.4251,8372
12.4308,7917
12.4365,8358
12.4422,8700
12.448,8594
12.4537,10082
12.4594,9916
12.4651,8855
12.4709,9014
12.4766,8905
12.4823,8461
12.488,9297
12.4937,9298
12.4995,8345
12.5052,9750
12.5109,9933
12.5166,8672
12.5223,8033
12.5281,9304
12.5338,8987
12.5395,9508
12.5452,8493
12.551,7797
12.5567,9540
12.5624,9275
12.5681,8404
12.5738,9038
12.5796,8617
12.5853,8678
12.591,9288
12.5967,9191
12.6025,10266
12.6082,10272
12.6139,9162
12.6196,9755
12.6253,10681
12.6311,10176
12.6368,11505
12.6425,11226
12.6482,11781
12.654,12620
12.6597,11741
12.6654,10915
12.6711,10862
12.6768,11491
12.6826,10636
12.6883,11673
12.694,11169
12.6997,10661
12.7055,11902
12.7112,10821
12.7169,10514
12.7226,11712
12.7283,11278
12.7341,9877
12.7398,9620
12.7455,10396
12.7512,9417
12.7569,9807
12.7627,9097
12.7684,10749
12.7741,10432
12.7798,10206
12.7856,10516
12.7913,10449
12.797,10799
12.8027,11533
12.8084,10221
12.8142,10201
12.8199,10815
12.8256,10473
12.8313,10313
12.8371,9702
12.8428,10590
12.8485,9378
12.8542,10307
12.8599,9948
12.8657,9419
12.8714,10360
12.8771,9876
12.8828,9347
12.8886,10424
12.8943,11546
12.9,12091
12.9057,11232
12.9114,11067
12.9172,11679
12.9229,11237
12.9286,9856
12.9343,9651
12.9401,8889
12.9458,10835
12.9515,10845
12.9572,9929
12.9629,11151
12.9687,9271
12.9744,10690
12.9801,10302
12.9858,9706
12.9916,9757
12.9973,11165
13.003,10067
13.0087,8950
13.0144,9132
13.0202,9939
13.0259,9402
13.0316,8555
13.0373,9995
13.043,9211
13.0488,9976
13.0545,9163
13.0602,9826
13.0659,9935
13.0717,9532
13.0774,8844
13.0831,9002
13.0888,8335
13.0945,9091
13.1003,8212
13.106,8296
13.1117,8297
13.1174,8768
13.1232,8931
13.1289,9168
13.1346,8037
13.1403,8245
13.146,8692
13.1518,8541
13.1575,9268
13.1632,9012
13.1689,8958
13.1747,9581
13.1804,8514
13.1861,8501
13.1918,8655
13.1975,8448
13.2033,8330
13.209,8802
13.2147,8436
13.2204,9350
13.2262,8652
13.2319,9741
13.2376,8937
13.2433,8031
13.249,9175
13.2548,8151
13.2605,7976
13.2662,9820
13.2719,8906
13.2776,7989
13.2834,9216
13.2891,9466
13.2948,10011
13.3005,8619
13.3063,9101
13.312,9137
13.3177,8718
13.3234,8298
13.3291,9456
13.3349,8990
13.3406,9303
13.3463,8635
13.352,9272
13.3578,8498
13.3635,9828
13.3692,9446
13.3749,9133
13.3806,9389
13.3864,9342
13.3921,9153
13.3978,9222
13.4035,9763
13.4093,8845
13.415,9034
13.4207,9055
13.4264,8829
13.4321,8950
13.4379,9467
13.4436,9533
13.4493,9756
13.455,8190
13.4608,9646
13.4665,9466
13.4722,10032
13.4779,9482
13.4836,10064
13.4894,9467
13.4951,10147
13.5008,9422
13.5065,9809
13.5122,9515
13.518,9318
13.5237,9816
13.5294,8851
13.5351,9108
13.5409,8860
13.5466,10008
13.5523,9048
13.558,8705
13.5637,8731
13.5695,10237
13.5752,10838
13.5809,9286
13.5866,9599
13.5924,9292
13.5981,11628
13.6038,9436
13.6095,10204
13.6152,10817
13.621,10862
13.6267,9178
13.6324,9755
13.6381,9723
13.6439,9966
13.6496,9649
13.6553,9730
13.661,9702
13.6667,9824
13.6725,9217
13.6782,9932
13.6839,9338
13.6896,10439
13.6954,9512
13.7011,9872
13.7068,10518
13.7125,9468
13.7182,10462
13.724,9123
13.7297,8724
13.7354,8749
13.7411,9278
13.7469,9291
13.7526,9566
13.7583,8812
13.764,9888
13.7697,8681
13.7755,8486
13.7812,9198
13.7869,9705
13.7926,9240
13.7983,9385
13.8041,8897
13.8098,10306
13.8155,10706
13.8212,9643
13.827,10289
13.8327,10945
13.8384,9249
13.8441,10187
13.8498,10671
13.8556,8929
13.8613,10427
13.867,10579
13.8727,10139
13.8785,10778
13.8842,9686
13.8899,9610
13.8956,9397
13.9013,10540
13.9071,9787
13.9128,9545
13.9185,10418
13.9242,10009
13.93,10118
13.9357,9640
13.9414,10166
13.9471,10189
13.9528,9551
13.9586,10703
13.9643,12099
13.97,12357
13.9757,12293
13.9815,11812
13.9872,12093
13.9929,10912
13.9986,8985
14.0043,10123
14.0101,8877
14.0158,9321
14.0215,9438
14.0272,10629
14.0329,9073
14.0387,10431
14.0444,9508
14.0501,10485
14.0558,9835
14.0616,10091
14.0673,10026
14.073,10876
14.0787,11344
14.0844,10841
14.0902,9949
14.0959,10760
14.1016,10652
14.1073,11515
14.1131,10400
14.1188,9560
14.1245,10764
14.1302,10370
14.1359,10501
14.1417,9607
14.1474,9840
14.1531,10738
14.1588,12684
14.1646,12052
14.1703,12334
14.176,11900
14.1817,10743
14.1874,11123
14.1932,11061
14.1989,10667
14.2046,10182
14.2103,10308
14.2161,9666
14.2218,10264
14.2275,8617
14.2332,10833
14.2389,11517
14.2447,10228
14.2504,10613
14.2561,10308
14.2618,10284
14.2675,10455
14.2733,11573
14.279,10698
14.2847,11371
14.2904,11878
14.2962,10881
14.3019,11142
14.3076,11441
14.3133,10064
14.319,11104
14.3248,11432
14.3305,12653
14.3362,11362
14.3419,11298
14.3477,10626
14.3534,10581
14.3591,11509
14.3648,11748
14.3705,11710
14.3763,10844
14.382,12138
14.3877,12584
14.3934,11710
14.3992,12893
14.4049,11220
14.4106,12270
14.4163,12262
14.422,12908
14.4278,12899
14.4335,11322
14.4392,12573
14.4449,11663
14.4507,13198
14.4564,12776
14.4621,12891
14.4678,12736
14.4735,13197
14.4793,12767
14.485,12370
14.4907,12263
14.4964,12465
14.5022,12464
14.5079,12667
14.5136,13403
14.5193,12515
14.525,12892
14.5308,13841
14.5365,12440
14.5422,13009
14.5479,13620
14.5536,14003
14.5594,13042
14.5651,13616
14.5708,12663
14.5765,13042
14.5823,12915
14.588,13706
14.5937,15060
14.5994,12642
14.6051,13047
14.6109,12957
14.6166,12860
14.6223,14912
14.628,13366
14.6338,13823
14.6395,14612
14.6452,13241
14.6509,13886
14.6566,13792
14.6624,13894
14.6681,14057
14.6738,13550
14.6795,13697
14.6853,14705
14.691,14595
14.6967,13932
14.7024,14125
14.7081,14770
14.7139,14387
14.7196,15588
14.7253,13910
14.731,15091
14.7368,15487
14.7425,13746
14.7482,16057
14.7539,14431
14.7596,16205
14.7654,15081
14.7711,14907
14.7768,16138
14.7825,15711
14.7882,14098
14.794,14966
14.7997,14106
14.8054,16453
14.8111,16067
14.8169,15216
14.8226,16272
14.8283,16338
14.834,17282
14.8397,15808
14.8455,13994
14.8512,15430
14.8569,15141
14.8626,16601
14.8684,16583
14.8741,15519
14.8798,16205
14.8855,16591
14.8912,18974
14.897,17504
14.9027,17674
14.9084,17129
14.9141,17111
14.9199,16132
14.9256,18081
14.9313,17420
14.937,16606
14.9427,18199
14.9485,18195
14.9542,19587
14.9599,20005
14.9656,20689
14.9714,21716
14.9771,19964
14.9828,20174
14.9885,18070
14.9942,17004
15,19317
15.0057,18388
15.0114,17995
15.0171,18881
15.0229,18113
15.0286,19706
15.0343,17554
15.04,19981
15.0457,18898
15.0515,20109
15.0572,19797
15.0629,20413
15.0686,20211
15.0743,19443
15.0801,20629
15.0858,20961
15.0915,20512
15.0972,20720
15.103,21786
15.1087,21784
15.1144,20322
15.1201,21156
15.1258,21694
15.1316,21626
15.1373,20767
15.143,23073
15.1487,21601
15.1545,21383
15.1602,21786
15.1659,21387
15.1716,21371
15.1773,21482
15.1831,22140
15.1888,20903
15.1945,21402
15.2002,22334
15.206,22174
15.2117,22365
15.2174,21281
15.2231,21872
15.2288,21505
15.2346,22424
15.2403,22355
15.246,22273
15.2517,23294
15.2575,23285
15.2632,22945
15.2689,20961
15.2746,21926
15.2803,22332
15.2861,21965
15.2918,23759
15.2975,24206
15.3032,24037
15.3089,24883
15.3147,23367
15.3204,23910
15.3261,23152
15.3318,22829
15.3376,22784
15.3433,23950
15.349,25254
15.3547,24746
15.3604,24973
15.3662,22943
15.3719,23338
15.3776,26253
15.3833,26033
15.3891,23984
15.3948,26172
15.4005,25162
15.4062,26196
15.4119,25716
15.4177,25593
15.4234,26595
15.4291,26387
15.4348,26052
15.4406,25875
15.4463,26805
15.452,27223
15.4577,25986
15.4634,26563
15.4692,27421
15.4749,28865
15.4806,29225
15.4863,28132
15.4921,28476
15.4978,28414
15.5035,27528
15.5092,27362
15.5149,28066
15.5207,28130
15.5264,28406
15.5321,28299
15.5378,28731
15.5435,29446
15.5493,30450
15.555,30311
15.5607,28361
15.5664,28580
15.5722,30319
15.5779,30177
15.5836,28945
15.5893,29569
15.595,29565
15.6008,31558
15.6065,31991
15.6122,28902
15.6179,31400
15.6237,30204
15.6294,29233
15.6351,29944
15.6408,32883
15.6465,30710
15.6523,31973
15.658,31762
15.6637,32351
15.6694,31291
15.6752,31782
15.6809,32696
15.6866,31697
15.6923,35191
15.698,32309
15.7038,34843
15.7095,32089
15.7152,33033
15.7209,32803
15.7267,34094
15.7324,31473
15.7381,35138
15.7438,34210
15.7495,34394
15.7553,33453
15.761,34366
15.7667,32548
15.7724,35386
15.7782,33697
15.7839,35048
15.7896,34055
15.7953,33662
15.801,36436
15.8068,34749
15.8125,34510
15.8182,36346
15.8239,37470
15.8296,36446
15.8354,36371
15.8411,36950
15.8468,36628
15.8525,35900
15.8583,36787
15.864,37481
15.8697,38776
15.8754,38484
15.8811,39818
15.8869,40086
15.8926,41807
15.8983,40926
15.904,41932
15.9098,38089
15.9155,38016
15.9212,38966
15.9269,40300
15.9326,40662
15.9384,40182
15.9441,41378
15.9498,39912
15.9555,39318
15.9613,39772
15.967,41229
15.9727,41853
15.9784,41498
15.9841,40840
15.9899,40971
15.9956,41891
16.0013,40963
16.007,41792
16.0128,41904
16.0185,41603
16.0242,42018
16.0299,41362
16.0356,43191
16.0414,44769
16.0471,41911
16.0528,43862
16.0585,44062
16.0642,44254
16.07,45467
16.0757,45488
16.0814,43855
16.0871,45217
16.0928,45686
16.0986,45073
16.1043,45714
16.11,45132
16.1157,46881
16.1215,45247
16.1272,45712
16.1329,47195
16.1386,46545
16.1443,45400
16.1501,51233
16.1558,48477
16.1615,45567
16.1672,48054
16.173,46879
16.1787,49813
16.1844,48788
16.1901,48687
16.1959,46821
16.2016,48291
16.2073,48944
16.213,49158
16.2187,50529
16.2245,51075
16.2302,49934
16.2359,51470
16.2416,53259
16.2474,51762
16.2531,51475
16.2588,52419
16.2645,50822
16.2702,52067
16.276,50225
16.2817,52655
16.2874,51551
16.2931,52024
16.2988,52934
16.3046,51558
16.3103,55314
16.316,53209
16.3217,53258
16.3274,54632
16.3332,52948
16.3389,54597
16.3446,53021
16.3503,54197
16.3561,53437
16.3618,53853
16.3675,53447
16.3732,55719
16.379,55874
16.3847,55971
16.3904,54601
16.3961,55048
16.4018,54705
16.4076,56778
16.4133,57166
16.419,56225
16.4247,58524
16.4305,58878
16.4362,58890
16.4419,59402
16.4476,59685
16.4533,58490
16.4591,57773
16.4648,57057
16.4705,58014
16.4762,58511
16.482,58500
16.4877,60852
16.4934,61605
16.4991,60719
16.5048,61098
16.5105,62098
16.5163,59799
16.522,60978
16.5277,62352
16.5334,62387
16.5392,65515
16.5449,65046
16.5506,63330
16.5563,63546
16.562,64713
16.5678,63859
16.5735,63843
16.5792,65232
16.5849,64512
16.5907,65034
16.5964,66954
16.6021,67430
16.6078,67316
16.6136,66758
16.6193,65760
16.625,66979
16.6307,66440
16.6364,68462
16.6422,67860
16.6479,68075
16.6536,69369
16.6593,69189
16.6651,65537
16.6708,70616
16.6765,68914
16.6822,69578
16.6879,71469
16.6937,70621
16.6994,69226
16.7051,69220
16.7108,70974
16.7166,72764
16.7223,73627
16.728,76088
16.7337,73365
16.7394,72010
16.7451,75397
16.7509,74682
16.7566,76066
16.7623,78160
16.768,79484
16.7738,75879
16.7795,79628
16.7852,76405
16.7909,77126
16.7967,79005
16.8024,77228
16.8081,75644
16.8138,75644
16.8195,74952
16.8253,75111
16.831,78241
16.8367,76375
16.8424,80404
16.8482,79101
16.8539,80312
16.8596,80761
16.8653,82607
16.871,80632
16.8768,82041
16.8825,80833
16.8882,82545
16.8939,79762
16.8997,82373
16.9054,81445
16.9111,82497
16.9168,81896
16.9225,84081
16.9282,83672
16.934,85381
16.9397,81887
16.9454,82149
16.9511,83851
16.9569,84247
16.9626,82731
16.9683,86618
16.974,87463
16.9797,86032
16.9855,85430
16.9912,84237
16.9969,86495
17.0026,88744
17.0084,87161
17.0141,92915
17.0198,88827
17.0255,90649
17.0313,88713
17.037,91100
17.0427,92279
17.0484,92421
17.0541,90848
17.0599,89927
17.0656,94945
17.0713,93183
17.077,90419
17.0828,91041
17.0885,91433
17.0942,90410
17.0999,94569
17.1056,93597
17.1114,90202
17.1171,93363
17.1228,91767
17.1285,90210
17.1343,94821
17.14,95666
17.1457,94652
17.1514,96064
17.1571,95479
17.1629,96131
17.1686,93727
17.1743,96530
17.18,94954
17.1857,98508
17.1915,95326
17.1972,97650
17.2029,99256
17.2086,96098
17.2144,96109
17.2201,100664
17.2258,100188
17.2315,97670
17.2373,99533
17.243,99184
17.2487,99896
17.2544,98311
17.2601,98090
17.2659,98668
17.2716,101911
17.2773,100182
17.283,98273
17.2888,101812
17.2945,100173
17.3002,101466
17.3059,99434
17.3116,101119
17.3174,102398
17.3231,105202
17.3288,99399
17.3345,101048
17.3402,100820
17.346,101112
17.3517,102527
17.3574,99333
17.3631,101850
17.3688,98903
17.3746,99650
17.3803,102274
17.386,102603
17.3917,101314
17.3975,102516
17.4032,101217
17.4089,103895
17.4146,101326
17.4203,102640
17.4261,101868
17.4318,106968
17.4375,105498
17.4432,104094
17.449,106419
17.4547,105492
17.4604,106869
17.4661,107517
17.4719,104696
17.4776,106113
17.4833,105410
17.489,104107
17.4947,105656
17.5005,105156
17.5062,104890
17.5119,103704
17.5176,107355
17.5234,107078
17.5291,112069
17.5348,106565
17.5405,107338
17.5462,110651
17.552,106057
17.5577,109405
17.5634,111551
17.5691,109906
17.5748,110287
17.5806,107656
17.5863,108168
17.592,108419
17.5977,110944
17.6035,110356
17.6092,108400
17.6149,107552
17.6206,110761
17.6263,110149
17.6321,110391
17.6378,109338
17.6435,109064
17.6492,108333
17.6549,107263
17.6607,107721
17.6664,107557
17.6721,106814
17.6778,107280
17.6836,108331
17.6893,104538
17.695,107691
17.7007,107703
17.7065,108140
17.7122,110959
17.7179,109215
17.7236,110092
17.7293,109718
17.7351,110228
17.7408,110726
17.7465,111523
17.7522,110304
17.758,108065
17.7637,108023
17.7694,109837
17.7751,109427
17.7808,106833
17.7866,109531
17.7923,107016
17.798,107247
17.8037,108113
17.8094,107799
17.8152,108386
17.8209,111132
17.8266,111332
17.8323,109394
17.8381,109040
17.8438,108190
17.8495,112284
17.8552,108749
17.8609,108456
17.8667,113599
17.8724,109798
17.8781,109537
17.8838,111961
17.8896,109481
17.8953,111699
17.901,112611
17.9067,112248
17.9124,110228
17.9182,114526
17.9239,112016
17.9296,109634
17.9353,110732
17.9411,113148
17.9468,110032
17.9525,111445
17.9582,112053
17.9639,113819
17.9697,111721
17.9754,111889
17.9811,110431
17.9868,110735
17.9926,109737
