C:\MSDCHEM\1\DATA\JAMES C\20180125 LACTONE WITH BME AND HYDROXYLAMINE\E 7hr.d 25 Jan 18  11:07 pm
Start of data points
3.09247,12038
3.09818,10920
3.1039,10890
3.10963,12537
3.11535,12144
3.12107,11254
3.1268,10464
3.13252,12058
3.13823,10980
3.14397,11565
3.14968,11716
3.1554,9907
3.16112,10886
3.16685,10936
3.17257,11247
3.17828,10861
3.18402,11642
3.18973,11427
3.19545,11107
3.20118,11724
3.2069,9725
3.21262,10554
3.21835,10869
3.22407,10502
3.22978,10879
3.23552,10892
3.24123,9996
3.24695,10996
3.25268,9653
3.2584,9573
3.26412,10633
3.26985,9409
3.27557,9798
3.28128,10034
3.287,10368
3.29273,9659
3.29845,10193
3.30417,8892
3.3099,9023
3.31562,8924
3.32133,9291
3.32707,9094
3.33278,7827
3.3385,8221
3.34423,8397
3.34995,8587
3.35567,8431
3.3614,8033
3.36712,7394
3.37283,7068
3.37857,7825
3.38428,7297
3.39,6877
3.39573,7416
3.40145,7501
3.40717,7593
3.41288,7249
3.41862,7607
3.42433,6824
3.43005,6818
3.43578,7426
3.4415,6815
3.44722,7264
3.45295,6311
3.45867,6132
3.46438,6390
3.47012,6542
3.47583,7311
3.48155,6966
3.48728,6270
3.493,5901
3.49872,6022
3.50445,5740
3.51017,6490
3.51588,5274
3.52162,5892
3.52733,7139
3.53305,5561
3.53877,7087
3.5445,6729
3.55022,5730
3.55593,5660
3.56167,6800
3.56738,7041
3.5731,6266
3.57883,6829
3.58455,6612
3.59027,6288
3.596,6396
3.60172,5458
3.60743,5830
3.61317,5553
3.61888,5130
3.6246,5813
3.63033,5346
3.63605,6191
3.64177,5691
3.6475,5099
3.65322,6011
3.65893,6575
3.66465,5248
3.67038,5384
3.6761,5252
3.68182,5742
3.68755,4948
3.69327,5047
3.69898,5512
3.70472,5060
3.71043,5061
3.71615,4089
3.72188,4341
3.7276,4626
3.73332,4873
3.73905,5392
3.74477,4960
3.75048,4343
3.75622,5116
3.76193,5171
3.76765,4395
3.77338,3734
3.7791,4517
3.78482,4463
3.79053,4612
3.79627,3999
3.80198,4152
3.8077,4279
3.81343,3939
3.81915,4896
3.82487,4080
3.8306,4141
3.83632,4144
3.84203,5151
3.84777,4366
3.85348,4526
3.8592,4345
3.86493,4174
3.87065,4172
3.87637,3338
3.8821,4742
3.88782,4665
3.89353,3247
3.89927,4144
3.90498,4870
3.9107,5239
3.91642,6012
3.92215,4684
3.92787,3898
3.93358,3739
3.93932,4409
3.94503,4607
3.95075,3363
3.95648,4935
3.9622,4200
3.96792,3282
3.97365,4115
3.97937,3983
3.98508,3943
3.99082,4252
3.99653,3946
4.00225,4218
4.00798,3599
4.0137,4004
4.01942,3787
4.02515,4469
4.03087,3964
4.03658,3895
4.0423,3451
4.04803,3659
4.05375,3261
4.05947,3543
4.0652,3646
4.07092,3044
4.07663,2888
4.08237,4105
4.08808,3631
4.0938,3518
4.09953,3598
4.10525,3359
4.11097,2984
4.1167,3445
4.12242,2944
4.12813,3862
4.13387,3543
4.13958,3464
4.1453,3742
4.15103,4215
4.15675,3720
4.16247,3298
4.16818,2793
4.17392,3439
4.17963,3358
4.18535,3779
4.19108,3795
4.1968,3474
4.20252,3036
4.20825,2941
4.21397,3359
4.21968,3340
4.22542,3573
4.23113,2258
4.23685,3022
4.24258,1975
4.2483,2662
4.25402,2726
4.25975,2973
4.26547,2797
4.27118,3049
4.27692,2642
4.28263,3039
4.28835,3155
4.29407,3196
4.2998,2759
4.30552,2246
4.31123,2479
4.31697,4114
4.32268,3448
4.3284,3495
4.33413,3159
4.33985,2638
4.34557,3606
4.3513,3911
4.35702,3883
4.36273,4334
4.36847,4387
4.37418,4220
4.3799,4608
4.38563,4691
4.39135,4224
4.39707,4767
4.4028,4526
4.40852,4978
4.41423,5084
4.41995,4512
4.42568,4543
4.4314,4732
4.43712,4935
4.44285,5058
4.44857,4653
4.45428,4282
4.46002,4592
4.46573,3914
4.47145,4023
4.47718,3536
4.4829,4670
4.48862,4484
4.49435,4673
4.50007,3361
4.50578,3400
4.51152,4021
4.51723,3800
4.52295,3771
4.52868,3898
4.5344,3594
4.54012,3777
4.54583,3491
4.55157,3314
4.55728,3189
4.563,2885
4.56873,2768
4.57445,2541
4.58017,2460
4.5859,3122
4.59162,2427
4.59733,3872
4.60307,2864
4.60878,3041
4.6145,3304
4.62023,3313
4.62595,3048
4.63167,3739
4.6374,2119
4.64312,2819
4.64883,3615
4.65457,2753
4.66028,3137
4.666,2969
4.67172,2912
4.67745,3167
4.68317,3512
4.68888,2458
4.69462,2573
4.70033,2896
4.70605,3038
4.71178,2771
4.7175,2517
4.72322,2470
4.72895,2450
4.73467,2265
4.74038,2628
4.74612,2824
4.75183,2652
4.75755,2283
4.76328,2444
4.769,2596
4.77472,2378
4.78045,2528
4.78617,2120
4.79188,2197
4.7976,1964
4.80333,2528
4.80905,2628
4.81477,2067
4.8205,2699
4.82622,2307
4.83193,1685
4.83767,2032
4.84338,1919
4.8491,2478
4.85483,2434
4.86055,2414
4.86627,2337
4.872,1359
4.87772,2062
4.88343,2406
4.88917,2396
4.89488,1823
4.9006,2438
4.90633,1971
4.91205,2105
4.91777,2300
4.92348,1904
4.92922,2326
4.93493,2260
4.94065,2007
4.94638,2261
4.9521,1872
4.95782,2166
4.96355,1873
4.96927,2106
4.97498,1819
4.98072,2375
4.98643,2499
4.99215,2410
4.99788,2206
5.0036,1576
5.00932,2316
5.01505,2302
5.02077,2215
5.02648,2085
5.03222,1816
5.03793,2379
5.04365,1730
5.04937,2198
5.0551,1718
5.06082,1609
5.06653,1944
5.07227,1896
5.07798,1969
5.0837,1496
5.08943,1501
5.09515,1699
5.10087,1771
5.1066,1795
5.11232,2693
5.11803,2551
5.12377,2070
5.12948,2217
5.1352,2065
5.14093,2403
5.14665,2342
5.15237,2041
5.1581,1574
5.16382,2188
5.16953,2051
5.17525,1940
5.18098,1461
5.1867,1515
5.19242,1497
5.19815,2217
5.20387,1681
5.20958,1389
5.21532,1484
5.22103,1830
5.22675,1773
5.23248,1850
5.2382,1663
5.24392,2166
5.24965,1991
5.25537,2055
5.26108,1395
5.26682,2207
5.27253,1950
5.27825,1604
5.28398,1376
5.2897,1986
5.29542,1870
5.30113,1457
5.30687,1794
5.31258,2120
5.3183,2518
5.32403,1398
5.32975,2450
5.33547,1438
5.3412,1842
5.34692,1849
5.35263,1734
5.35837,1358
5.36408,2180
5.3698,1640
5.37553,1803
5.38125,1745
5.38697,2196
5.3927,2710
5.39842,2153
5.40413,2279
5.40987,2202
5.41558,2080
5.4213,2394
5.42702,2751
5.43275,2929
5.43847,2647
5.44418,2092
5.44992,2350
5.45563,2700
5.46135,2446
5.46708,1952
5.4728,2387
5.47852,2638
5.48425,2259
5.48997,2367
5.49568,1474
5.50142,2720
5.50713,1621
5.51285,2066
5.51858,1608
5.5243,1993
5.53002,1480
5.53575,2088
5.54147,1602
5.54718,2055
5.55292,1296
5.55863,1673
5.56435,2040
5.57007,1835
5.5758,2064
5.58152,1397
5.58723,1985
5.59297,1499
5.59868,1804
5.6044,2057
5.61013,1807
5.61585,1702
5.62157,1486
5.6273,1571
5.63302,2039
5.63873,2211
5.64447,1570
5.65018,1515
5.6559,2210
5.66163,1742
5.66735,1828
5.67307,1840
5.6788,1807
5.68452,1434
5.69023,1881
5.69595,1641
5.70168,2576
5.7074,1750
5.71312,1348
5.71885,1675
5.72457,1972
5.73028,1549
5.73602,1773
5.74173,1561
5.74745,1920
5.75318,1594
5.7589,2011
5.76462,1894
5.77035,1812
5.77607,1599
5.78178,1940
5.78752,1514
5.79323,1649
5.79895,1613
5.80468,1828
5.8104,1504
5.81612,1736
5.82183,1246
5.82757,1329
5.83328,1239
5.839,1447
5.84473,1554
5.85045,1406
5.85617,1822
5.8619,1158
5.86762,1458
5.87333,1400
5.87907,1695
5.88478,1703
5.8905,2022
5.89623,2064
5.90195,2000
5.90767,985
5.9134,1382
5.91912,1508
5.92483,1102
5.93057,1557
5.93628,1351
5.942,1768
5.94772,834
5.95345,1615
5.95917,1463
5.96488,1024
5.97062,1710
5.97633,811
5.98205,1510
5.98778,996
5.9935,1597
5.99922,1717
6.00495,1790
6.01067,1511
6.01638,1540
6.02212,2064
6.02783,1309
6.03355,2094
6.03928,2116
6.045,1867
6.05072,1620
6.05645,2067
6.06217,2051
6.06788,2877
6.0736,1373
6.07933,1492
6.08505,2397
6.09077,1889
6.0965,1565
6.10222,2252
6.10793,2655
6.11367,2241
6.11938,1461
6.1251,1813
6.13083,2259
6.13655,1145
6.14227,2030
6.148,1734
6.15372,2045
6.15943,1252
6.16517,1621
6.17088,1489
6.1766,1580
6.18233,738
6.18805,1424
6.19377,968
6.19948,1393
6.20522,1246
6.21093,1392
6.21665,1477
6.22238,1906
6.2281,1369
6.23382,1082
6.23955,1250
6.24527,1162
6.25098,2061
6.25672,1734
6.26243,1067
6.26815,1650
6.27388,2073
6.2796,1148
6.28532,1692
6.29105,1610
6.29677,1042
6.30248,1073
6.30822,1345
6.31393,1813
6.31965,992
6.32537,1339
6.3311,899
6.33682,1503
6.34253,1538
6.34827,1510
6.35398,1470
6.3597,1844
6.36543,1960
6.37115,1193
6.37687,1585
6.3826,1490
6.38832,1487
6.39403,1552
6.39977,1400
6.40548,1328
6.4112,1653
6.41693,1379
6.42265,1889
6.42837,1691
6.4341,2196
6.43982,1521
6.44553,1359
6.45125,2146
6.45698,1188
6.4627,1875
6.46842,1869
6.47415,1597
6.47987,1707
6.48558,1391
6.49132,1357
6.49703,1634
6.50275,1157
6.50848,1971
6.5142,1889
6.51992,1685
6.52565,1631
6.53137,1211
6.53708,1408
6.54282,1975
6.54853,1545
6.55425,1440
6.55998,1549
6.5657,2177
6.57142,1844
6.57713,2168
6.58287,1643
6.58858,2390
6.5943,2123
6.60003,1597
6.60575,1854
6.61147,2609
6.6172,1644
6.62292,2247
6.62863,1967
6.63437,1967
6.64008,2937
6.6458,2206
6.65153,2144
6.65725,1646
6.66297,1626
6.6687,2618
6.67442,2827
6.68013,2134
6.68587,2331
6.69158,2371
6.6973,2304
6.70302,1605
6.70875,2846
6.71447,2832
6.72018,3111
6.72592,2348
6.73163,3396
6.73735,2575
6.74308,2388
6.7488,2901
6.75452,2528
6.76025,1962
6.76597,2250
6.77168,2327
6.77742,2139
6.78313,1511
6.78885,1529
6.79458,2399
6.8003,2261
6.80602,2197
6.81175,2028
6.81747,2247
6.82318,1896
6.8289,1696
6.83463,2572
6.84035,2402
6.84607,2584
6.8518,2557
6.85752,2033
6.86323,2173
6.86897,2105
6.87468,2504
6.8804,2364
6.88613,1512
6.89185,2209
6.89757,2450
6.9033,2335
6.90902,1572
6.91473,2067
6.92047,1785
6.92618,2527
6.9319,2164
6.93763,1901
6.94335,1554
6.94907,1914
6.95478,2132
6.96052,1786
6.96623,2040
6.97195,1892
6.97768,2024
6.9834,2186
6.98912,2280
6.99485,1822
7.00057,2515
7.00628,1901
7.01202,2425
7.01773,1977
7.02345,1726
7.02918,1711
7.0349,1907
7.04062,1634
7.04635,1501
7.05207,2481
7.05778,1644
7.06352,2397
7.06923,1525
7.07495,2219
7.08067,1929
7.0864,2506
7.09212,2234
7.09783,3616
7.10357,3328
7.10928,4138
7.115,4450
7.12073,5904
7.12645,5294
7.13217,5218
7.1379,4715
7.14362,5159
7.14933,3336
7.15507,4578
7.16078,3306
7.1665,3169
7.17223,2776
7.17795,2604
7.18367,2625
7.1894,2313
7.19512,2591
7.20083,2769
7.20655,2574
7.21228,2193
7.218,2096
7.22372,1506
7.22945,2582
7.23517,2687
7.24088,2227
7.24662,2713
7.25233,1847
7.25805,2545
7.26378,2166
7.2695,2191
7.27522,2700
7.28095,2373
7.28667,2175
7.29238,3047
7.29812,3386
7.30383,4049
7.30955,4909
7.31528,5027
7.321,4142
7.32672,4163
7.33243,4046
7.33817,3296
7.34388,2906
7.3496,3037
7.35533,2772
7.36105,2968
7.36677,2977
7.3725,2287
7.37822,2863
7.38393,2181
7.38967,2569
7.39538,2527
7.4011,2436
7.40683,1473
7.41255,2129
7.41827,2230
7.424,2172
7.42972,2406
7.43543,1699
7.44117,2140
7.44688,1976
7.4526,1742
7.45832,2135
7.46405,1709
7.46977,2274
7.47548,1698
7.48122,1921
7.48693,2035
7.49265,2215
7.49838,1833
7.5041,2585
7.50982,1742
7.51555,2342
7.52127,2681
7.52698,2312
7.53272,1703
7.53843,2561
7.54415,2542
7.54988,1886
7.5556,1901
7.56132,2024
7.56705,2437
7.57277,1619
7.57848,2349
7.5842,2981
7.58993,2140
7.59565,1905
7.60137,1729
7.6071,2187
7.61282,1885
7.61853,2341
7.62427,2040
7.62998,1681
7.6357,2164
7.64143,2437
7.64715,2306
7.65287,2552
7.6586,2181
7.66432,1717
7.67003,1983
7.67577,2736
7.68148,1686
7.6872,2197
7.69293,2716
7.69865,2970
7.70437,2516
7.71008,2881
7.71582,2416
7.72153,2878
7.72725,2946
7.73298,2445
7.7387,2434
7.74442,2605
7.75015,3071
7.75587,2647
7.76158,2601
7.76732,3045
7.77303,1851
7.77875,2643
7.78448,2561
7.7902,2277
7.79592,2597
7.80165,2135
7.80737,2084
7.81308,2070
7.81882,2149
7.82453,2034
7.83025,2712
7.83597,1986
7.8417,1430
7.84742,2026
7.85313,2639
7.85887,2500
7.86458,2484
7.8703,2082
7.87603,2222
7.88175,1752
7.88747,1782
7.8932,2187
7.89892,2652
7.90463,1823
7.91037,1959
7.91608,2013
7.9218,2541
7.92753,2744
7.93325,2807
7.93897,2088
7.9447,2008
7.95042,2397
7.95613,1688
7.96185,2571
7.96758,2990
7.9733,2134
7.97902,2825
7.98475,2882
7.99047,1860
7.99618,2517
8.00192,2379
8.00763,2088
8.01335,2579
8.01908,2200
8.0248,1988
8.03052,1847
8.03625,1806
8.04197,2667
8.04768,2901
8.05342,2295
8.05913,2026
8.06485,1804
8.07058,2313
8.0763,3029
8.08202,2286
8.08773,2417
8.09347,2829
8.09918,1976
8.1049,2189
8.11063,2386
8.11635,2687
8.12207,2064
8.1278,2661
8.13352,2299
8.13923,2417
8.14497,2546
8.15068,2879
8.1564,2318
8.16213,2988
8.16785,1820
8.17357,1376
8.1793,2310
8.18502,2456
8.19073,2865
8.19647,2308
8.20218,1766
8.2079,2267
8.21362,2711
8.21935,2700
8.22507,2146
8.23078,2103
8.23652,2498
8.24223,2035
8.24795,2218
8.25368,2418
8.2594,2079
8.26512,2448
8.27085,2334
8.27657,2873
8.28228,2330
8.28802,2530
8.29373,2497
8.29945,2619
8.30518,2195
8.3109,1823
8.31662,2041
8.32235,2939
8.32807,2567
8.33378,2503
8.3395,2204
8.34523,2537
8.35095,2337
8.35667,2296
8.3624,3147
8.36812,2070
8.37383,2495
8.37957,2249
8.38528,2432
8.391,2697
8.39673,2268
8.40245,1842
8.40817,2487
8.4139,2054
8.41962,2300
8.42533,2725
8.43107,2337
8.43678,1795
8.4425,2249
8.44823,2199
8.45395,1987
8.45967,2802
8.46538,2093
8.47112,2632
8.47683,2999
8.48255,2552
8.48828,2126
8.494,2476
8.49972,2585
8.50545,2051
8.51117,2161
8.51688,2607
8.52262,2616
8.52833,2500
8.53405,2844
8.53978,2133
8.5455,2278
8.55122,2214
8.55695,2706
8.56267,2536
8.56838,2359
8.57412,2314
8.57983,2226
8.58555,2344
8.59127,2375
8.597,2387
8.60272,2637
8.60843,2333
8.61417,2750
8.61988,2593
8.6256,2804
8.63133,2653
8.63705,2946
8.64277,2378
8.6485,2003
8.65422,3138
8.65993,2382
8.66567,2031
8.67138,2563
8.6771,3343
8.68283,2869
8.68855,2620
8.69427,2963
8.7,2772
8.70572,2883
8.71143,2275
8.71715,1705
8.72288,2883
8.7286,1835
8.73432,2626
8.74005,2606
8.74577,2228
8.75148,2760
8.75722,3022
8.76293,2051
8.76865,2052
8.77438,2195
8.7801,2432
8.78582,2282
8.79155,2649
8.79727,3270
8.80298,2258
8.80872,3081
8.81443,3266
8.82015,2040
8.82588,3296
8.8316,3076
8.83732,2594
8.84303,2746
8.84877,2914
8.85448,2266
8.8602,2789
8.86593,2102
8.87165,2439
8.87737,2312
8.8831,2336
8.88882,2202
8.89453,4208
8.90027,2527
8.90598,2474
8.9117,2593
8.91743,2210
8.92315,2376
8.92887,2325
8.9346,2779
8.94032,2068
8.94603,2885
8.95177,2685
8.95748,3250
8.9632,2771
8.96892,2751
8.97465,3097
8.98037,4301
8.98608,5444
8.99182,5962
8.99753,6352
9.00325,5839
9.00898,4339
9.0147,3376
9.02042,2745
9.02615,2938
9.03187,2724
9.03758,2788
9.04332,2402
9.04903,3014
9.05475,2238
9.06048,2905
9.0662,2689
9.07192,3214
9.07765,2656
9.08337,3221
9.08908,3225
9.0948,3341
9.10053,2323
9.10625,2535
9.11197,2436
9.1177,3315
9.12342,2503
9.12913,3784
9.13487,2365
9.14058,2677
9.1463,2334
9.15203,2637
9.15775,2733
9.16347,2790
9.1692,2679
9.17492,3130
9.18063,2011
9.18637,3045
9.19208,2133
9.1978,2626
9.20353,2901
9.20925,2710
9.21497,1883
9.2207,3306
9.22642,2968
9.23213,2655
9.23785,2806
9.24358,2406
9.2493,2504
9.25502,2934
9.26075,2393
9.26647,2356
9.27218,2509
9.27792,2502
9.28363,2587
9.28935,3043
9.29508,2709
9.3008,2424
9.30652,2685
9.31225,3445
9.31797,2352
9.32368,2307
9.32942,3040
9.33513,3484
9.34085,2906
9.34658,2799
9.3523,3047
9.35802,2572
9.36373,2424
9.36947,2876
9.37518,2944
9.3809,3059
9.38663,2083
9.39235,2159
9.39807,3280
9.4038,2727
9.40952,3146
9.41523,3617
9.42097,3111
9.42668,2865
9.4324,2398
9.43813,2360
9.44385,2673
9.44957,2549
9.4553,3300
9.46102,2355
9.46673,2161
9.47247,2988
9.47818,2503
9.4839,2944
9.48962,2876
9.49535,2616
9.50107,2566
9.50678,2071
9.51252,2535
9.51823,2572
9.52395,2926
9.52968,1835
9.5354,2492
9.54112,3347
9.54685,2243
9.55257,3328
9.55828,3347
9.56402,2246
9.56973,2696
9.57545,2951
9.58118,3639
9.5869,2532
9.59262,2345
9.59835,2932
9.60407,2636
9.60978,3245
9.6155,2863
9.62123,2494
9.62695,3259
9.63267,3279
9.6384,3182
9.64412,2565
9.64983,2625
9.65557,3218
9.66128,3065
9.667,3166
9.67273,2794
9.67845,2853
9.68417,2446
9.6899,2702
9.69562,2514
9.70133,2751
9.70707,2786
9.71278,2764
9.7185,3323
9.72423,3288
9.72995,2474
9.73567,2627
9.74138,2720
9.74712,3116
9.75283,3303
9.75855,2973
9.76428,2671
9.77,3435
9.77572,2953
9.78145,2946
9.78717,2653
9.79288,2790
9.79862,2572
9.80433,2894
9.81005,3019
9.81578,3542
9.8215,2580
9.82722,3553
9.83295,3450
9.83867,2710
9.84438,2791
9.85012,3698
9.85583,2625
9.86155,2153
9.86727,2664
9.873,2618
9.87872,2567
9.88443,2968
9.89017,2638
9.89588,2729
9.9016,2278
9.90733,2806
9.91305,2899
9.91877,2642
9.9245,3034
9.93022,2430
9.93593,2979
9.94167,2686
9.94738,2439
9.9531,2384
9.95883,2813
9.96455,2079
9.97027,2919
9.976,3302
9.98172,2918
9.98743,2899
9.99315,3361
9.99888,2685
10.0046,2960
10.0103,2804
10.0161,2822
10.0218,2034
10.0275,2360
10.0332,2876
10.0389,2460
10.0447,3033
10.0504,3749
10.0561,3164
10.0618,3028
10.0676,3380
10.0733,2681
10.079,2636
10.0847,3301
10.0904,2499
10.0962,2890
10.1019,2594
10.1076,3270
10.1133,3165
10.119,2387
10.1248,3590
10.1305,2933
10.1362,2535
10.1419,2435
10.1477,2180
10.1534,3131
10.1591,3129
10.1648,3620
10.1705,3109
10.1763,3113
10.182,3131
10.1877,2812
10.1934,2973
10.1992,2648
10.2049,2412
10.2106,3320
10.2163,3013
10.222,2704
10.2278,2953
10.2335,2914
10.2392,3350
10.2449,3050
10.2507,3103
10.2564,2827
10.2621,2724
10.2678,2951
10.2735,3348
10.2793,2213
10.285,3564
10.2907,3140
10.2964,3341
10.3022,3096
10.3079,2987
10.3136,2739
10.3193,3327
10.325,2570
10.3308,3080
10.3365,3287
10.3422,3365
10.3479,2563
10.3537,2977
10.3594,2569
10.3651,2845
10.3708,3297
10.3765,3268
10.3823,3228
10.388,3206
10.3937,3010
10.3994,2921
10.4051,3163
10.4109,2761
10.4166,3493
10.4223,4389
10.428,4877
10.4338,5935
10.4395,4895
10.4452,5221
10.4509,3888
10.4566,3492
10.4624,3049
10.4681,2538
10.4738,2916
10.4795,3681
10.4853,3470
10.491,2985
10.4967,2596
10.5024,2678
10.5081,3208
10.5139,3445
10.5196,3288
10.5253,3331
10.531,3715
10.5368,2949
10.5425,2963
10.5482,2547
10.5539,4491
10.5596,2468
10.5654,3865
10.5711,3004
10.5768,2987
10.5825,3348
10.5883,4665
10.594,7534
10.5997,19680
10.6054,51297
10.6111,110222
10.6169,174913
10.6226,198716
10.6283,154586
10.634,82689
10.6397,33795
10.6455,14083
10.6512,7845
10.6569,7256
10.6626,9855
10.6684,13142
10.6741,10960
10.6798,9105
10.6855,7316
10.6912,4614
10.697,3806
10.7027,4156
10.7084,3533
10.7141,3484
10.7199,3097
10.7256,3653
10.7313,2495
10.737,4143
10.7427,3933
10.7485,3459
10.7542,3365
10.7599,3050
10.7656,3638
10.7714,3500
10.7771,3550
10.7828,3189
10.7885,3061
10.7942,3910
10.8,3622
10.8057,3902
10.8114,2890
10.8171,3284
10.8229,3897
10.8286,4872
10.8343,6084
10.84,7373
10.8457,6493
10.8515,5364
10.8572,4429
10.8629,4083
10.8686,3047
10.8743,3071
10.8801,3580
10.8858,3897
10.8915,3811
10.8972,3476
10.903,3860
10.9087,3677
10.9144,3097
10.9201,3549
10.9258,3577
10.9316,2905
10.9373,3522
10.943,3052
10.9487,3884
10.9545,3191
10.9602,3410
10.9659,3537
10.9716,2927
10.9773,3304
10.9831,3040
10.9888,4077
10.9945,3064
11.0002,3432
11.006,3687
11.0117,3568
11.0174,3287
11.0231,3463
11.0288,2930
11.0346,3877
11.0403,3417
11.046,3858
11.0517,3129
11.0575,3135
11.0632,3470
11.0689,3550
11.0746,3266
11.0803,3699
11.0861,4298
11.0918,3760
11.0975,2857
11.1032,4514
11.109,3670
11.1147,3246
11.1204,4581
11.1261,3974
11.1318,3991
11.1376,2626
11.1433,4097
11.149,4090
11.1547,4390
11.1604,3880
11.1662,4008
11.1719,3620
11.1776,4089
11.1833,4503
11.1891,4026
11.1948,3309
11.2005,4146
11.2062,4590
11.2119,4692
11.2177,5540
11.2234,6429
11.2291,6655
11.2348,7690
11.2406,8025
11.2463,8103
11.252,7815
11.2577,8615
11.2634,7910
11.2692,7899
11.2749,7314
11.2806,7742
11.2863,7353
11.2921,7235
11.2978,6696
11.3035,7553
11.3092,7126
11.3149,7058
11.3207,6842
11.3264,6164
11.3321,6462
11.3378,6086
11.3436,5795
11.3493,5558
11.355,6094
11.3607,5914
11.3664,7052
11.3722,6686
11.3779,6358
11.3836,6156
11.3893,6278
11.395,5084
11.4008,5679
11.4065,6337
11.4122,5383
11.4179,5470
11.4237,4891
11.4294,5459
11.4351,5504
11.4408,4331
11.4465,5806
11.4523,4635
11.458,4906
11.4637,5569
11.4694,5081
11.4752,5277
11.4809,6126
11.4866,5183
11.4923,4795
11.498,5121
11.5038,5612
11.5095,4952
11.5152,5214
11.5209,4802
11.5267,4730
11.5324,4516
11.5381,4507
11.5438,4764
11.5495,4530
11.5553,4546
11.561,4217
11.5667,4950
11.5724,5037
11.5782,5230
11.5839,5625
11.5896,3519
11.5953,4883
11.601,4401
11.6068,4717
11.6125,4241
11.6182,4891
11.6239,4592
11.6296,3982
11.6354,4965
11.6411,4823
11.6468,4641
11.6525,4361
11.6583,5439
11.664,4579
11.6697,3757
11.6754,5421
11.6811,4772
11.6869,4313
11.6926,5198
11.6983,4353
11.704,4673
11.7098,5540
11.7155,5870
11.7212,6646
11.7269,6973
11.7326,5264
11.7384,3648
11.7441,4875
11.7498,5239
11.7555,4614
11.7613,4142
11.767,4650
11.7727,3929
11.7784,4180
11.7841,3982
11.7899,4619
11.7956,4423
11.8013,4144
11.807,4395
11.8128,3644
11.8185,4537
11.8242,3333
11.8299,3884
11.8356,4677
11.8414,4403
11.8471,4193
11.8528,4748
11.8585,4556
11.8643,3708
11.87,4875
11.8757,4503
11.8814,3515
11.8871,4208
11.8929,4993
11.8986,4164
11.9043,4297
11.91,4609
11.9157,4106
11.9215,4701
11.9272,4934
11.9329,3953
11.9386,3842
11.9444,3824
11.9501,3885
11.9558,4778
11.9615,4686
11.9672,4514
11.973,4684
11.9787,4616
11.9844,4271
11.9901,3137
11.9959,4469
12.0016,4320
12.0073,4656
12.013,4832
12.0187,4501
12.0245,4253
12.0302,4238
12.0359,4757
12.0416,4062
12.0474,5251
12.0531,5603
12.0588,4459
12.0645,3993
12.0702,4467
12.076,4079
12.0817,4365
12.0874,4294
12.0931,4192
12.0989,5100
12.1046,4661
12.1103,5562
12.116,7521
12.1217,9671
12.1275,11668
12.1332,10236
12.1389,8466
12.1446,6858
12.1503,5331
12.1561,4914
12.1618,3693
12.1675,4152
12.1732,4648
12.179,4811
12.1847,4109
12.1904,4317
12.1961,5103
12.2018,4560
12.2076,4987
12.2133,4397
12.219,4038
12.2247,5428
12.2305,5166
12.2362,4603
12.2419,5327
12.2476,5477
12.2533,4986
12.2591,4495
12.2648,5248
12.2705,4472
12.2762,4892
12.282,3978
12.2877,4145
12.2934,4511
12.2991,5948
12.3048,5744
12.3106,5476
12.3163,6452
12.322,4658
12.3277,5355
12.3335,5113
12.3392,5662
12.3449,5678
12.3506,5083
12.3563,5275
12.3621,4960
12.3678,6321
12.3735,5710
12.3792,6031
12.3849,7322
12.3907,6544
12.3964,6615
12.4021,6517
12.4078,6586
12.4136,6673
12.4193,6242
12.425,7402
12.4307,7992
12.4364,9294
12.4422,8290
12.4479,8059
12.4536,9558
12.4593,9039
12.4651,7826
12.4708,8246
12.4765,8341
12.4822,8627
12.4879,8599
12.4937,8696
12.4994,9287
12.5051,8211
12.5108,9120
12.5166,9412
12.5223,7985
12.528,9359
12.5337,8387
12.5394,8955
12.5452,8974
12.5509,9059
12.5566,8065
12.5623,7845
12.5681,8538
12.5738,7180
12.5795,9007
12.5852,8547
12.5909,8452
12.5967,8268
12.6024,8518
12.6081,9482
12.6138,8985
12.6196,9242
12.6253,9905
12.631,10859
12.6367,9148
12.6424,10869
12.6482,10242
12.6539,11064
12.6596,9954
12.6653,9930
12.671,10336
12.6768,10206
12.6825,9353
12.6882,10588
12.6939,9279
12.6997,9280
12.7054,8326
12.7111,9557
12.7168,8628
12.7225,9697
12.7283,8948
12.734,9198
12.7397,9624
12.7454,9659
12.7512,9536
12.7569,9526
12.7626,9845
12.7683,9524
12.774,9393
12.7798,9832
12.7855,8728
12.7912,9395
12.7969,9341
12.8027,10170
12.8084,8667
12.8141,8367
12.8198,9501
12.8255,9196
12.8313,9218
12.837,9233
12.8427,9044
12.8484,8482
12.8542,8622
12.8599,9373
12.8656,9550
12.8713,9384
12.877,9264
12.8828,9862
12.8885,10328
12.8942,11368
12.8999,10860
12.9056,11309
12.9114,9702
12.9171,9044
12.9228,7452
12.9285,7967
12.9343,9095
12.94,8376
12.9457,9099
12.9514,9101
12.9571,8730
12.9629,8268
12.9686,8158
12.9743,8795
12.98,8576
12.9858,9175
12.9915,8870
12.9972,8674
13.0029,8039
13.0086,8148
13.0144,9317
13.0201,9278
13.0258,8521
13.0315,8753
13.0373,9233
13.043,8658
13.0487,8181
13.0544,8655
13.0601,7604
13.0659,8043
13.0716,7547
13.0773,6257
13.083,6910
13.0888,7332
13.0945,7064
13.1002,8219
13.1059,7277
13.1116,8073
13.1174,7988
13.1231,7340
13.1288,8732
13.1345,7184
13.1403,8145
13.146,6534
13.1517,6739
13.1574,7824
13.1631,7412
13.1689,7568
13.1746,7562
13.1803,7849
13.186,7023
13.1917,7456
13.1975,7291
13.2032,7577
13.2089,7216
13.2146,7527
13.2204,7399
13.2261,7512
13.2318,6992
13.2375,7871
13.2432,6849
13.249,7546
13.2547,7770
13.2604,7586
13.2661,7896
13.2719,6754
13.2776,7342
13.2833,6904
13.289,8959
13.2947,7184
13.3005,7096
13.3062,8124
13.3119,7324
13.3176,7208
13.3234,8676
13.3291,8166
13.3348,6976
13.3405,7578
13.3462,7922
13.352,7065
13.3577,7237
13.3634,8651
13.3691,8031
13.3749,7730
13.3806,8536
13.3863,7537
13.392,7637
13.3977,6821
13.4035,8767
13.4092,8000
13.4149,8516
13.4206,7855
13.4263,8571
13.4321,7906
13.4378,8307
13.4435,7556
13.4492,8184
13.455,7577
13.4607,8847
13.4664,9133
13.4721,8468
13.4778,7639
13.4836,8494
13.4893,8698
13.495,8096
13.5007,8283
13.5065,7956
13.5122,8881
13.5179,8374
13.5236,7914
13.5293,8770
13.5351,8557
13.5408,8584
13.5465,7617
13.5522,7988
13.558,7756
13.5637,8119
13.5694,7729
13.5751,9207
13.5808,9515
13.5866,9391
13.5923,10000
13.598,9481
13.6037,8919
13.6095,9428
13.6152,8661
13.6209,9831
13.6266,8341
13.6323,8886
13.6381,9039
13.6438,8084
13.6495,9276
13.6552,9227
13.6609,8352
13.6667,9332
13.6724,7756
13.6781,8441
13.6838,8367
13.6896,7911
13.6953,8677
13.701,8208
13.7067,9086
13.7124,8023
13.7182,8143
13.7239,8444
13.7296,8415
13.7353,8579
13.7411,8451
13.7468,8073
13.7525,8109
13.7582,8051
13.7639,8732
13.7697,8146
13.7754,8513
13.7811,7818
13.7868,7942
13.7926,8048
13.7983,8304
13.804,7985
13.8097,8896
13.8154,8206
13.8212,8199
13.8269,7958
13.8326,8530
13.8383,7277
13.8441,8446
13.8498,7685
13.8555,7709
13.8612,8086
13.8669,8314
13.8727,8410
13.8784,8456
13.8841,8045
13.8898,8410
13.8956,8880
13.9013,8833
13.907,7731
13.9127,8301
13.9184,7988
13.9242,8058
13.9299,8774
13.9356,8108
13.9413,8282
13.947,8689
13.9528,9212
13.9585,10073
13.9642,10854
13.9699,10517
13.9757,9913
13.9814,9360
13.9871,8612
13.9928,8044
13.9985,7767
14.0043,7605
14.01,8634
14.0157,7808
14.0214,7987
14.0272,7661
14.0329,8157
14.0386,8058
14.0443,7883
14.05,7430
14.0558,8715
14.0615,8546
14.0672,8479
14.0729,8173
14.0787,8207
14.0844,8366
14.0901,8786
14.0958,7909
14.1015,8134
14.1073,8842
14.113,9595
14.1187,7838
14.1244,7842
14.1302,7840
14.1359,9142
14.1416,10351
14.1473,10456
14.153,11166
14.1588,10273
14.1645,9964
14.1702,9546
14.1759,8835
14.1816,9612
14.1874,9098
14.1931,9293
14.1988,8940
14.2045,8568
14.2103,9359
14.216,8017
14.2217,8491
14.2274,9225
14.2331,8485
14.2389,9731
14.2446,8608
14.2503,8225
14.256,10384
14.2618,9101
14.2675,8727
14.2732,9877
14.2789,9784
14.2846,9987
14.2904,10277
14.2961,9536
14.3018,10570
14.3075,9162
14.3133,9405
14.319,9451
14.3247,9956
14.3304,9711
14.3361,9240
14.3419,10483
14.3476,9562
14.3533,9731
14.359,9965
14.3648,10252
14.3705,9432
14.3762,10784
14.3819,9970
14.3876,9808
14.3934,9366
14.3991,10189
14.4048,10248
14.4105,10597
14.4162,10053
14.422,10033
14.4277,9997
14.4334,10168
14.4391,10394
14.4449,11292
14.4506,11215
14.4563,10236
14.462,9679
14.4677,10910
14.4735,10155
14.4792,9887
14.4849,11221
14.4906,10797
14.4964,10660
14.5021,9480
14.5078,10644
14.5135,10381
14.5192,10803
14.525,10464
14.5307,10205
14.5364,10221
14.5421,11652
14.5479,11089
14.5536,10470
14.5593,11006
14.565,10024
14.5707,12661
14.5765,11034
14.5822,11647
14.5879,10307
14.5936,12141
14.5994,11039
14.6051,10565
14.6108,10416
14.6165,10782
14.6222,11640
14.628,10417
14.6337,11713
14.6394,10498
14.6451,11124
14.6509,11745
14.6566,11527
14.6623,11415
14.668,11396
14.6737,10622
14.6795,11851
14.6852,11972
14.6909,11448
14.6966,11210
14.7023,11952
14.7081,12448
14.7138,13106
14.7195,12623
14.7252,12311
14.731,12294
14.7367,12141
14.7424,13158
14.7481,13003
14.7538,13188
14.7596,13448
14.7653,11578
14.771,14057
14.7767,13059
14.7825,12586
14.7882,13559
14.7939,13149
14.7996,12093
14.8053,13533
14.8111,13686
14.8168,13345
14.8225,12909
14.8282,13890
14.834,12995
14.8397,13802
14.8454,14177
14.8511,13878
14.8568,13015
14.8626,12895
14.8683,13181
14.874,14331
14.8797,13872
14.8855,15294
14.8912,14802
14.8969,15350
14.9026,16111
14.9083,14252
14.9141,12862
14.9198,15446
14.9255,14707
14.9312,15861
14.9369,15765
14.9427,16848
14.9484,17510
14.9541,17517
14.9598,17395
14.9656,17840
14.9713,18054
14.977,15060
14.9827,14991
14.9884,15695
14.9942,15283
14.9999,15825
15.0056,15795
15.0113,15447
15.0171,15787
15.0228,15309
15.0285,16472
15.0342,16038
15.0399,16484
15.0457,16972
15.0514,17151
15.0571,15409
15.0628,16634
15.0686,17593
15.0743,17176
15.08,18285
15.0857,17752
15.0914,17392
15.0972,17119
15.1029,16882
15.1086,16078
15.1143,16695
15.1201,18344
15.1258,17296
15.1315,17805
15.1372,17890
15.1429,17977
15.1487,19624
15.1544,19458
15.1601,17555
15.1658,17275
15.1715,19265
15.1773,18138
15.183,18153
15.1887,18266
15.1944,18160
15.2002,19662
15.2059,18555
15.2116,18809
15.2173,19072
15.223,18424
15.2288,19221
15.2345,18933
15.2402,18910
15.2459,20300
15.2517,20304
15.2574,19791
15.2631,19087
15.2688,18715
15.2745,20177
15.2803,19646
15.286,18908
15.2917,18167
15.2974,19332
15.3032,19995
15.3089,21193
15.3146,19274
15.3203,20121
15.326,21320
15.3318,20908
15.3375,20429
15.3432,23139
15.3489,20857
15.3547,20543
15.3604,20327
15.3661,21977
15.3718,20946
15.3775,22488
15.3833,21410
15.389,22290
15.3947,21831
15.4004,21173
15.4062,22443
15.4119,22043
15.4176,22718
15.4233,22211
15.429,23133
15.4348,24171
15.4405,23110
15.4462,21956
15.4519,22794
15.4576,23019
15.4634,24189
15.4691,23732
15.4748,24922
15.4805,24027
15.4863,24004
15.492,25398
15.4977,24445
15.5034,23610
15.5091,25059
15.5149,24874
15.5206,24768
15.5263,24710
15.532,23785
15.5378,26154
15.5435,24911
15.5492,24783
15.5549,25641
15.5606,25735
15.5664,24446
15.5721,24518
15.5778,26673
15.5835,27451
15.5893,24988
15.595,26469
15.6007,24636
15.6064,25921
15.6121,26489
15.6179,24452
15.6236,26523
15.6293,26417
15.635,27716
15.6408,27892
15.6465,28048
15.6522,27450
15.6579,28545
15.6636,28094
15.6694,29047
15.6751,29360
15.6808,30033
15.6865,29164
15.6922,29290
15.698,28378
15.7037,31345
15.7094,29276
15.7151,28418
15.7209,32343
15.7266,29972
15.7323,29719
15.738,31133
15.7437,29794
15.7495,30488
15.7552,29963
15.7609,31382
15.7666,31171
15.7724,31900
15.7781,31872
15.7838,30584
15.7895,30129
15.7952,31059
15.801,30300
15.8067,31533
15.8124,32411
15.8181,32140
15.8239,31905
15.8296,32178
15.8353,32045
15.841,31983
15.8467,32469
15.8525,33387
15.8582,33193
15.8639,33709
15.8696,34985
15.8754,35627
15.8811,35663
15.8868,36557
15.8925,36672
15.8982,35208
15.904,36680
15.9097,36888
15.9154,34922
15.9211,35358
15.9268,35997
15.9326,34391
15.9383,37638
15.944,33777
15.9497,35292
15.9555,36492
15.9612,33960
15.9669,35659
15.9726,36272
15.9783,35893
15.9841,37061
15.9898,35263
15.9955,36575
16.0012,37391
16.007,35299
16.0127,37363
16.0184,40053
16.0241,37653
16.0298,38982
16.0356,39092
16.0413,39497
16.047,39511
16.0527,38395
16.0585,37716
16.0642,39986
16.0699,38589
16.0756,37956
16.0813,40983
16.0871,39893
16.0928,42446
16.0985,41799
16.1042,41451
16.11,41140
16.1157,43412
16.1214,39084
16.1271,42238
16.1328,42180
16.1385,43400
16.1443,41165
16.15,43077
16.1557,44593
16.1614,44982
16.1672,43417
16.1729,45584
16.1786,45857
16.1843,45798
16.19,43804
16.1958,44673
16.2015,46688
16.2072,45719
16.2129,46143
16.2187,47793
16.2244,45102
16.2301,46900
16.2358,46017
16.2416,45805
16.2473,46980
16.253,44794
16.2587,46172
16.2644,45678
16.2702,46187
16.2759,46939
16.2816,47716
16.2873,47410
16.2931,49499
16.2988,48607
16.3045,49221
16.3102,46204
16.3159,48783
16.3217,48355
16.3274,50466
16.3331,49964
16.3388,50043
16.3446,46641
16.3503,49423
16.356,49582
16.3617,49135
16.3674,52596
16.3731,52054
16.3789,50807
16.3846,50582
16.3903,52862
16.396,52401
16.4018,52935
16.4075,53393
16.4132,51697
16.4189,51260
16.4247,51413
16.4304,53470
16.4361,54598
16.4418,51532
16.4475,52436
16.4533,53122
16.459,53375
16.4647,54730
16.4704,52146
16.4762,56811
16.4819,55835
16.4876,53131
16.4933,56087
16.499,56060
16.5048,56433
16.5105,56831
16.5162,56189
16.5219,57470
16.5277,54431
16.5334,58762
16.5391,56113
16.5448,55355
16.5505,60837
16.5562,56214
16.562,58262
16.5677,59428
16.5734,57728
16.5791,58416
16.5849,59771
16.5906,61205
16.5963,61655
16.602,59020
16.6077,59697
16.6135,59973
16.6192,60592
16.6249,60637
16.6306,61851
16.6364,62135
16.6421,62474
16.6478,63087
16.6535,62743
16.6593,63012
16.665,62689
16.6707,63767
16.6764,65134
16.6821,66722
16.6879,65203
16.6936,65794
16.6993,65449
16.705,66121
16.7108,65212
16.7165,66616
16.7222,65055
16.7279,66096
16.7336,67083
16.7394,66599
16.7451,67186
16.7508,71529
16.7565,70139
16.7623,72689
16.768,74566
16.7737,72471
16.7794,72770
16.7851,72870
16.7909,71628
16.7966,70922
16.8023,70552
16.808,71832
16.8137,69523
16.8195,72136
16.8252,70950
16.8309,71482
16.8366,72705
16.8424,72088
16.8481,72221
16.8538,72517
16.8595,73626
16.8653,73600
16.871,76639
16.8767,76604
16.8824,74176
16.8881,76577
16.8939,76760
16.8996,76781
16.9053,74785
16.911,75539
16.9168,76016
16.9225,76412
16.9282,78989
16.9339,81621
16.9396,76856
16.9454,75203
16.9511,79124
16.9568,81737
16.9625,77493
16.9682,78408
16.974,78325
16.9797,80241
16.9854,78406
16.9911,81926
16.9968,81238
17.0026,81512
17.0083,84740
17.014,81641
17.0197,81260
17.0255,82920
17.0312,80007
17.0369,82098
17.0426,82706
17.0483,83347
17.0541,83848
17.0598,84614
17.0655,81580
17.0712,87452
17.077,83579
17.0827,87228
17.0884,86737
17.0941,87799
17.0999,87319
17.1056,86122
17.1113,88263
17.117,88120
17.1227,86052
17.1285,88483
17.1342,87626
17.1399,87897
17.1456,83603
17.1514,87156
17.1571,87577
17.1628,90101
17.1685,91734
17.1742,92515
17.18,88297
17.1857,89818
17.1914,90676
17.1971,88935
17.2028,88630
17.2086,89293
17.2143,92224
17.22,91231
17.2257,89500
17.2314,91855
17.2372,93958
17.2429,94926
17.2486,91206
17.2543,93430
17.2601,92389
17.2658,92577
17.2715,95246
17.2772,93784
17.283,92551
17.2887,97204
17.2944,96486
17.3001,95981
17.3058,98164
17.3116,97949
17.3173,92836
17.323,95281
17.3287,95368
17.3345,93804
17.3402,96165
17.3459,99883
17.3516,94492
17.3573,95952
17.3631,97444
17.3688,97807
17.3745,101478
17.3802,95771
17.386,97269
17.3917,98306
17.3974,95720
17.4031,96811
17.4088,95927
17.4145,102993
17.4203,96946
17.426,100776
17.4317,100680
17.4374,96622
17.4432,101819
17.4489,101424
17.4546,99525
17.4603,100213
17.466,102296
17.4718,99035
17.4775,100838
17.4832,99407
17.4889,100464
17.4947,99609
17.5004,104261
17.5061,103593
17.5118,102046
17.5176,101569
17.5233,103843
17.529,104447
17.5347,102189
17.5404,102917
17.5462,104158
17.5519,105680
17.5576,102474
17.5633,103372
17.5691,101967
17.5748,103475
17.5805,103399
17.5862,103467
17.5919,102587
17.5977,104874
17.6034,103507
17.6091,104325
17.6148,105533
17.6206,105447
17.6263,107682
17.632,104531
17.6377,105230
17.6434,102249
17.6492,103486
17.6549,105381
17.6606,108425
17.6663,103975
17.6721,104549
17.6778,103557
17.6835,105291
17.6892,104666
17.6949,102363
17.7007,104523
17.7064,104407
17.7121,103847
17.7178,103274
17.7235,105826
17.7293,103851
17.735,105240
17.7407,106107
17.7464,105855
17.7522,104527
17.7579,105978
17.7636,107744
17.7693,107058
17.775,106250
17.7808,106641
17.7865,105210
17.7922,103805
17.7979,107373
17.8037,105223
17.8094,104999
17.8151,107550
17.8208,109541
17.8265,107457
17.8323,106066
17.838,110994
17.8437,108989
17.8494,108495
17.8552,109052
17.8609,108701
17.8666,109243
17.8723,107595
17.878,106076
17.8837,111111
17.8895,112610
17.8952,112303
17.9009,108776
17.9067,109251
17.9124,106654
17.9181,109256
17.9238,107574
17.9295,110109
17.9353,109111
17.941,108321
17.9467,110890
17.9524,107165
17.9581,107092
17.9639,110138
17.9696,111050
17.9753,111199
17.981,109578
17.9868,113337
17.9925,108650
