C:\MSDCHEM\1\DATA\MANDKHAI\20180626 MTH_C12COA\SLR_NltAB_E57A_French_2.d 27 Jun 18   1:46 pm
Start of data points
5.09258,0
5.09832,224
5.10403,150
5.10975,242
5.11548,248
5.1212,0
5.12692,210
5.13265,178
5.13837,183
5.14408,166
5.1498,152
5.15553,247
5.16125,194
5.16697,382
5.1727,277
5.17842,218
5.18413,177
5.18987,206
5.19558,275
5.2013,0
5.20703,0
5.21275,0
5.21847,180
5.2242,158
5.22992,191
5.23563,0
5.24137,153
5.24708,169
5.2528,207
5.25853,150
5.26425,170
5.26997,173
5.27568,164
5.28142,170
5.28713,212
5.29285,0
5.29858,194
5.3043,248
5.31002,160
5.31575,0
5.32147,235
5.32718,0
5.33292,0
5.33863,204
5.34435,0
5.35008,169
5.3558,152
5.36152,0
5.36725,0
5.37297,180
5.37868,0
5.38442,210
5.39013,0
5.39585,185
5.40157,170
5.4073,0
5.41302,0
5.41873,0
5.42447,197
5.43018,0
5.4359,161
5.44163,0
5.44735,154
5.45307,0
5.4588,0
5.46452,208
5.47023,193
5.47597,0
5.48168,154
5.4874,150
5.49313,172
5.49885,220
5.50457,0
5.5103,0
5.51602,0
5.52173,182
5.52745,0
5.53318,0
5.5389,198
5.54462,226
5.55035,0
5.55607,175
5.56178,0
5.56752,195
5.57323,154
5.57895,151
5.58468,0
5.5904,0
5.59612,173
5.60185,207
5.60757,0
5.61328,0
5.61902,0
5.62473,0
5.63045,0
5.63618,0
5.6419,182
5.64762,0
5.65333,188
5.65907,0
5.66478,0
5.6705,184
5.67623,182
5.68195,169
5.68767,0
5.6934,0
5.69912,0
5.70483,0
5.71057,207
5.71628,0
5.722,0
5.72773,0
5.73345,0
5.73917,0
5.7449,0
5.75062,0
5.75633,0
5.76207,171
5.76778,174
5.7735,177
5.77922,0
5.78495,167
5.79067,165
5.79638,173
5.80212,157
5.80783,175
5.81355,0
5.81928,178
5.825,177
5.83072,0
5.83645,0
5.84217,0
5.84788,0
5.85362,0
5.85933,0
5.86505,0
5.87078,0
5.8765,174
5.88222,0
5.88795,0
5.89367,180
5.89938,0
5.9051,0
5.91083,156
5.91655,0
5.92227,0
5.928,0
5.93372,0
5.93943,0
5.94517,0
5.95088,183
5.9566,0
5.96233,159
5.96805,0
5.97377,0
5.9795,0
5.98522,0
5.99093,0
5.99667,0
6.00238,0
6.0081,0
6.01383,0
6.01955,0
6.02527,0
6.03098,0
6.03672,0
6.04243,0
6.04815,0
6.05388,0
6.0596,0
6.06532,0
6.07105,0
6.07677,0
6.08248,0
6.08822,0
6.09393,150
6.09965,0
6.10538,152
6.1111,158
6.11682,0
6.12255,0
6.12827,0
6.13398,0
6.13972,0
6.14543,0
6.15115,194
6.15687,0
6.1626,0
6.16832,0
6.17403,0
6.17977,0
6.18548,0
6.1912,0
6.19693,0
6.20265,0
6.20837,0
6.2141,212
6.21982,0
6.22553,0
6.23127,163
6.23698,0
6.2427,182
6.24843,0
6.25415,0
6.25987,0
6.2656,0
6.27132,0
6.27703,0
6.28275,204
6.28848,0
6.2942,0
6.29992,150
6.30565,0
6.31137,0
6.31708,0
6.32282,0
6.32853,0
6.33425,0
6.33998,0
6.3457,0
6.35142,0
6.35715,0
6.36287,160
6.36858,0
6.37432,0
6.38003,170
6.38575,0
6.39148,0
6.3972,0
6.40292,0
6.40863,0
6.41437,0
6.42008,0
6.4258,0
6.43153,0
6.43725,0
6.44297,0
6.4487,0
6.45442,0
6.46013,0
6.46587,0
6.47158,0
6.4773,0
6.48303,0
6.48875,0
6.49447,0
6.5002,0
6.50592,0
6.51163,0
6.51737,160
6.52308,0
6.5288,198
6.53452,263
6.54025,597
6.54597,455
6.55168,508
6.55742,250
6.56313,581
6.56885,333
6.57458,255
6.5803,244
6.58602,0
6.59175,216
6.59747,173
6.60318,331
6.60892,0
6.61463,406
6.62035,157
6.62608,0
6.6318,0
6.63752,0
6.64325,0
6.64897,0
6.65468,0
6.6604,0
6.66613,0
6.67185,0
6.67757,0
6.6833,0
6.68902,0
6.69473,0
6.70047,0
6.70618,199
6.7119,0
6.71763,0
6.72335,158
6.72907,210
6.7348,0
6.74052,152
6.74623,190
6.75197,0
6.75768,197
6.7634,0
6.76913,0
6.77485,0
6.78057,0
6.78628,155
6.79202,0
6.79773,0
6.80345,0
6.80918,0
6.8149,168
6.82062,172
6.82635,0
6.83207,0
6.83778,0
6.84352,0
6.84923,0
6.85495,0
6.86068,0
6.8664,0
6.87212,0
6.87785,0
6.88357,0
6.88928,0
6.89502,0
6.90073,0
6.90645,0
6.91218,0
6.9179,0
6.92362,0
6.92933,0
6.93507,0
6.94078,0
6.9465,0
6.95223,0
6.95795,0
6.96367,0
6.9694,0
6.97512,0
6.98083,0
6.98657,0
6.99228,0
6.998,0
7.00373,0
7.00945,0
7.01517,0
7.0209,0
7.02662,0
7.03233,0
7.03807,0
7.04378,0
7.0495,0
7.05522,0
7.06095,0
7.06667,0
7.07238,0
7.07812,0
7.08383,0
7.08955,0
7.09528,0
7.101,0
7.10672,195
7.11245,0
7.11817,0
7.12388,0
7.12962,0
7.13533,0
7.14105,0
7.14678,0
7.1525,0
7.15822,0
7.16395,0
7.16967,0
7.17538,0
7.1811,0
7.18683,0
7.19255,0
7.19827,0
7.204,0
7.20972,0
7.21543,0
7.22117,0
7.22688,0
7.2326,0
7.23833,0
7.24405,0
7.24977,0
7.2555,0
7.26122,0
7.26693,0
7.27267,0
7.27838,0
7.2841,169
7.28983,0
7.29555,0
7.30127,0
7.30698,0
7.31272,0
7.31843,0
7.32415,0
7.32988,0
7.3356,0
7.34132,0
7.34705,0
7.35277,0
7.35848,0
7.36422,0
7.36993,0
7.37565,0
7.38138,0
7.3871,0
7.39282,0
7.39855,0
7.40427,0
7.40998,0
7.41572,0
7.42143,0
7.42715,0
7.43287,0
7.4386,0
7.44432,0
7.45003,0
7.45577,0
7.46148,0
7.4672,0
7.47293,0
7.47865,0
7.48437,0
7.4901,0
7.49582,0
7.50153,0
7.50727,0
7.51298,0
7.5187,0
7.52443,0
7.53015,0
7.53587,0
7.5416,0
7.54732,0
7.55303,0
7.55875,0
7.56448,0
7.5702,0
7.57592,0
7.58165,0
7.58737,0
7.59308,0
7.59882,0
7.60453,0
7.61025,0
7.61598,0
7.6217,0
7.62742,0
7.63315,0
7.63887,0
7.64458,0
7.65032,0
7.65603,0
7.66175,0
7.66748,0
7.6732,0
7.67892,0
7.68463,0
7.69037,0
7.69608,0
7.7018,0
7.70753,0
7.71325,0
7.71897,0
7.7247,0
7.73042,156
7.73613,0
7.74187,0
7.74758,0
7.7533,0
7.75903,0
7.76475,0
7.77047,229
7.7762,0
7.78192,0
7.78763,0
7.79337,0
7.79908,0
7.8048,0
7.81052,0
7.81625,0
7.82197,151
7.82768,0
7.83342,0
7.83913,0
7.84485,0
7.85058,0
7.8563,0
7.86202,0
7.86775,0
7.87347,0
7.87918,0
7.88492,0
7.89063,0
7.89635,0
7.90208,0
7.9078,0
7.91352,0
7.91925,0
7.92497,0
7.93068,0
7.9364,0
7.94213,0
7.94785,0
7.95357,0
7.9593,0
7.96502,0
7.97073,0
7.97647,0
7.98218,0
7.9879,0
7.99363,0
7.99935,0
8.00507,0
8.0108,0
8.01652,0
8.02223,0
8.02797,0
8.03368,0
8.0394,0
8.04513,0
8.05085,0
8.05657,0
8.06228,0
8.06802,0
8.07373,0
8.07945,0
8.08518,0
8.0909,0
8.09662,0
8.10235,0
8.10807,0
8.11378,0
8.11952,0
8.12523,0
8.13095,0
8.13668,0
8.1424,0
8.14812,0
8.15385,0
8.15957,0
8.16528,0
8.17102,0
8.17673,0
8.18245,0
8.18817,0
8.1939,0
8.19962,0
8.20533,0
8.21107,0
8.21678,0
8.2225,0
8.22823,0
8.23395,0
8.23967,0
8.2454,0
8.25112,0
8.25683,0
8.26257,0
8.26828,0
8.274,0
8.27973,0
8.28545,0
8.29117,0
8.2969,0
8.30262,0
8.30833,0
8.31405,0
8.31978,0
8.3255,0
8.33122,0
8.33695,0
8.34267,0
8.34838,0
8.35412,0
8.35983,0
8.36555,0
8.37128,0
8.377,0
8.38272,0
8.38845,0
8.39417,0
8.39988,0
8.40562,0
8.41133,0
8.41705,0
8.42278,0
8.4285,0
8.43422,0
8.43993,0
8.44567,0
8.45138,0
8.4571,0
8.46283,0
8.46855,0
8.47427,0
8.48,0
8.48572,0
8.49143,0
8.49717,180
8.50288,0
8.5086,0
8.51433,0
8.52005,0
8.52577,0
8.5315,0
8.53722,0
8.54293,0
8.54867,0
8.55438,0
8.5601,0
8.56582,0
8.57155,0
8.57727,0
8.58298,0
8.58872,0
8.59443,0
8.60015,0
8.60588,0
8.6116,0
8.61732,0
8.62305,0
8.62877,0
8.63448,0
8.64022,0
8.64593,0
8.65165,0
8.65738,0
8.6631,0
8.66882,0
8.67455,0
8.68027,0
8.68598,0
8.6917,0
8.69743,0
8.70315,0
8.70887,0
8.7146,0
8.72032,0
8.72603,0
8.73177,0
8.73748,0
8.7432,0
8.74893,0
8.75465,0
8.76037,0
8.7661,0
8.77182,0
8.77753,0
8.78327,0
8.78898,0
8.7947,0
8.80043,0
8.80615,0
8.81187,0
8.81758,0
8.82332,0
8.82903,0
8.83475,0
8.84048,0
8.8462,0
8.85192,0
8.85765,0
8.86337,0
8.86908,0
8.87482,0
8.88053,0
8.88625,0
8.89198,0
8.8977,0
8.90342,0
8.90915,0
8.91487,0
8.92058,0
8.92632,0
8.93203,0
8.93775,0
8.94347,0
8.9492,0
8.95492,0
8.96063,0
8.96637,0
8.97208,0
8.9778,0
8.98353,0
8.98925,0
8.99497,0
9.0007,0
9.00642,0
9.01213,0
9.01787,0
9.02358,0
9.0293,0
9.03503,0
9.04075,0
9.04647,0
9.0522,0
9.05792,0
9.06363,0
9.06935,0
9.07508,0
9.0808,0
9.08652,0
9.09225,0
9.09797,0
9.10368,0
9.10942,0
9.11513,0
9.12085,0
9.12658,0
9.1323,0
9.13802,0
9.14375,0
9.14947,0
9.15518,0
9.16092,0
9.16663,0
9.17235,0
9.17808,0
9.1838,0
9.18952,0
9.19523,0
9.20097,0
9.20668,0
9.2124,151
9.21813,0
9.22385,0
9.22957,0
9.2353,0
9.24102,0
9.24673,0
9.25247,0
9.25818,0
9.2639,0
9.26963,0
9.27535,0
9.28107,0
9.2868,0
9.29252,0
9.29823,0
9.30397,0
9.30968,0
9.3154,0
9.32112,0
9.32685,0
9.33257,0
9.33828,0
9.34402,0
9.34973,0
9.35545,0
9.36118,0
9.3669,0
9.37262,0
9.37835,0
9.38407,0
9.38978,0
9.39552,0
9.40123,0
9.40695,0
9.41268,0
9.4184,0
9.42412,0
9.42985,0
9.43557,0
9.44128,0
9.447,0
9.45273,0
9.45845,0
9.46417,0
9.4699,0
9.47562,0
9.48133,0
9.48707,0
9.49278,0
9.4985,0
9.50423,0
9.50995,0
9.51567,0
9.5214,0
9.52712,0
9.53283,0
9.53857,0
9.54428,0
9.55,0
9.55573,0
9.56145,0
9.56717,0
9.57288,0
9.57862,0
9.58433,0
9.59005,0
9.59578,0
9.6015,0
9.60722,153
9.61295,0
9.61867,0
9.62438,0
9.63012,0
9.63583,0
9.64155,0
9.64728,0
9.653,0
9.65872,0
9.66445,0
9.67017,0
9.67588,0
9.68162,0
9.68733,0
9.69305,0
9.69877,0
9.7045,0
9.71022,0
9.71593,0
9.72167,0
9.72738,0
9.7331,0
9.73883,0
9.74455,0
9.75027,0
9.756,0
9.76172,0
9.76743,0
9.77317,0
9.77888,0
9.7846,0
9.79033,0
9.79605,0
9.80177,0
9.8075,0
9.81322,0
9.81893,0
9.82465,0
9.83038,0
9.8361,0
9.84182,0
9.84755,0
9.85327,0
9.85898,0
9.86472,0
9.87043,0
9.87615,0
9.88188,0
9.8876,0
9.89332,0
9.89905,0
9.90477,0
9.91048,0
9.91622,0
9.92193,0
9.92765,0
9.93338,0
9.9391,0
9.94482,0
9.95053,0
9.95627,0
9.96198,0
9.9677,0
9.97343,0
9.97915,0
9.98487,0
9.9906,0
9.99632,0
10.002,0
10.0078,0
10.0135,0
10.0192,167
10.0249,0
10.0307,0
10.0364,0
10.0421,0
10.0478,0
10.0535,0
10.0593,0
10.065,0
10.0707,0
10.0764,0
10.0822,0
10.0879,0
10.0936,0
10.0993,0
10.105,0
10.1108,0
10.1165,0
10.1222,0
10.1279,0
10.1337,0
10.1394,0
10.1451,0
10.1508,0
10.1565,0
10.1623,160
10.168,0
10.1737,0
10.1794,0
10.1852,0
10.1909,0
10.1966,0
10.2023,0
10.208,0
10.2138,0
10.2195,0
10.2252,0
10.2309,0
10.2366,0
10.2424,0
10.2481,0
10.2538,0
10.2595,0
10.2653,0
10.271,0
10.2767,184
10.2824,0
10.2881,0
10.2939,0
10.2996,0
10.3053,0
10.311,0
10.3168,0
10.3225,0
10.3282,0
10.3339,0
10.3396,0
10.3454,0
10.3511,0
10.3568,0
10.3625,0
10.3683,0
10.374,0
10.3797,0
10.3854,0
10.3911,0
10.3969,0
10.4026,0
10.4083,0
10.414,0
10.4198,0
10.4255,0
10.4312,0
10.4369,0
10.4426,0
10.4484,0
10.4541,0
10.4598,0
10.4655,0
10.4712,0
10.477,0
10.4827,0
10.4884,0
10.4941,0
10.4999,0
10.5056,0
10.5113,0
10.517,0
10.5227,0
10.5285,0
10.5342,0
10.5399,0
10.5456,0
10.5514,0
10.5571,0
10.5628,0
10.5685,0
10.5742,0
10.58,0
10.5857,0
10.5914,164
10.5971,0
10.6029,0
10.6086,0
10.6143,158
10.62,0
10.6257,0
10.6315,0
10.6372,0
10.6429,0
10.6486,0
10.6544,0
10.6601,0
10.6658,0
10.6715,0
10.6772,0
10.683,0
10.6887,0
10.6944,216
10.7001,0
10.7059,0
10.7116,0
10.7173,0
10.723,0
10.7287,0
10.7345,0
10.7402,0
10.7459,0
10.7516,0
10.7573,0
10.7631,0
10.7688,0
10.7745,0
10.7802,0
10.786,0
10.7917,0
10.7974,0
10.8031,0
10.8088,0
10.8146,0
10.8203,0
10.826,0
10.8317,0
10.8375,0
10.8432,0
10.8489,0
10.8546,0
10.8603,0
10.8661,0
10.8718,157
10.8775,0
10.8832,0
10.889,0
10.8947,0
10.9004,0
10.9061,0
10.9118,0
10.9176,0
10.9233,0
10.929,0
10.9347,0
10.9405,0
10.9462,0
10.9519,0
10.9576,0
10.9633,172
10.9691,0
10.9748,0
10.9805,0
10.9862,175
10.9919,0
10.9977,0
11.0034,0
11.0091,0
11.0148,153
11.0206,0
11.0263,0
11.032,0
11.0377,0
11.0434,0
11.0492,0
11.0549,0
11.0606,0
11.0663,178
11.0721,0
11.0778,0
11.0835,0
11.0892,0
11.0949,0
11.1007,0
11.1064,0
11.1121,0
11.1178,0
11.1236,0
11.1293,0
11.135,0
11.1407,0
11.1464,0
11.1522,0
11.1579,0
11.1636,0
11.1693,0
11.1751,151
11.1808,0
11.1865,0
11.1922,0
11.1979,0
11.2037,0
11.2094,0
11.2151,0
11.2208,0
11.2265,0
11.2323,0
11.238,0
11.2437,0
11.2494,0
11.2552,0
11.2609,198
11.2666,0
11.2723,168
11.278,0
11.2838,0
11.2895,0
11.2952,0
11.3009,0
11.3067,0
11.3124,0
11.3181,0
11.3238,0
11.3295,0
11.3353,0
11.341,0
11.3467,0
11.3524,0
11.3582,0
11.3639,0
11.3696,0
11.3753,0
11.381,0
11.3868,0
11.3925,210
11.3982,200
11.4039,0
11.4097,0
11.4154,175
11.4211,0
11.4268,161
11.4325,0
11.4383,205
11.444,0
11.4497,0
11.4554,0
11.4612,172
11.4669,0
11.4726,0
11.4783,0
11.484,0
11.4898,156
11.4955,0
11.5012,195
11.5069,0
11.5126,0
11.5184,0
11.5241,154
11.5298,158
11.5355,0
11.5413,0
11.547,153
11.5527,174
11.5584,0
11.5641,0
11.5699,0
11.5756,0
11.5813,222
11.587,0
11.5928,198
11.5985,0
11.6042,0
11.6099,165
11.6156,0
11.6214,0
11.6271,0
11.6328,167
11.6385,0
11.6443,0
11.65,150
11.6557,156
11.6614,0
11.6671,0
11.6729,179
11.6786,0
11.6843,193
11.69,0
11.6958,160
11.7015,150
11.7072,0
11.7129,0
11.7186,163
11.7244,0
11.7301,0
11.7358,0
11.7415,167
11.7472,0
11.753,174
11.7587,0
11.7644,0
11.7701,0
11.7759,0
11.7816,163
11.7873,173
11.793,160
11.7987,196
11.8045,221
11.8102,199
11.8159,242
11.8216,157
11.8274,164
11.8331,181
11.8388,226
11.8445,0
11.8502,0
11.856,181
11.8617,175
11.8674,0
11.8731,160
11.8789,0
11.8846,201
11.8903,0
11.896,0
11.9017,162
11.9075,193
11.9132,0
11.9189,184
11.9246,231
11.9304,155
11.9361,162
11.9418,0
11.9475,0
11.9532,186
11.959,170
11.9647,0
11.9704,178
11.9761,0
11.9818,304
11.9876,0
11.9933,0
11.999,161
12.0047,0
12.0105,0
12.0162,167
12.0219,159
12.0276,0
12.0333,169
12.0391,0
12.0448,165
12.0505,195
12.0562,236
12.062,218
12.0677,197
12.0734,170
12.0791,195
12.0848,232
12.0906,194
12.0963,0
12.102,150
12.1077,258
12.1135,161
12.1192,177
12.1249,0
12.1306,0
12.1363,0
12.1421,0
12.1478,210
12.1535,0
12.1592,203
12.165,189
12.1707,165
12.1764,0
12.1821,181
12.1878,155
12.1936,197
12.1993,0
12.205,163
12.2107,189
12.2165,189
12.2222,0
12.2279,243
12.2336,164
12.2393,0
12.2451,178
12.2508,0
12.2565,151
12.2622,202
12.2679,0
12.2737,213
12.2794,200
12.2851,0
12.2908,0
12.2966,0
12.3023,184
12.308,206
12.3137,203
12.3194,181
12.3252,164
12.3309,186
12.3366,198
12.3423,289
12.3481,203
12.3538,185
12.3595,207
12.3652,0
12.3709,174
12.3767,223
12.3824,176
12.3881,0
12.3938,0
12.3996,159
12.4053,162
12.411,0
12.4167,207
12.4224,219
12.4282,217
12.4339,0
12.4396,177
12.4453,253
12.4511,0
12.4568,163
12.4625,287
12.4682,163
12.4739,178
12.4797,222
12.4854,224
12.4911,155
12.4968,283
12.5025,237
12.5083,207
12.514,212
12.5197,241
12.5254,199
12.5312,184
12.5369,219
12.5426,192
12.5483,161
12.554,246
12.5598,239
12.5655,253
12.5712,328
12.5769,230
12.5827,200
12.5884,220
12.5941,177
12.5998,180
12.6055,158
12.6113,240
12.617,272
12.6227,179
12.6284,177
12.6342,176
12.6399,191
12.6456,163
12.6513,240
12.657,198
12.6628,388
12.6685,204
12.6742,391
12.6799,193
12.6857,212
12.6914,385
12.6971,161
12.7028,220
12.7085,280
12.7143,156
12.72,185
12.7257,217
12.7314,287
12.7371,289
12.7429,162
12.7486,302
12.7543,174
12.76,289
12.7658,264
12.7715,296
12.7772,182
12.7829,204
12.7886,247
12.7944,331
12.8001,194
12.8058,211
12.8115,239
12.8173,259
12.823,204
12.8287,202
12.8344,176
12.8401,188
12.8459,200
12.8516,242
12.8573,212
12.863,391
12.8688,205
12.8745,252
12.8802,262
12.8859,169
12.8916,259
12.8974,203
12.9031,202
12.9088,385
12.9145,367
12.9203,169
12.926,222
12.9317,669
12.9374,326
12.9431,258
12.9489,274
12.9546,226
12.9603,224
12.966,551
12.9718,321
12.9775,204
12.9832,443
12.9889,417
12.9946,326
13.0004,282
13.0061,193
13.0118,292
13.0175,443
13.0232,403
13.029,252
13.0347,288
13.0404,512
13.0461,299
13.0519,293
13.0576,440
13.0633,222
13.069,231
13.0747,282
13.0805,338
13.0862,177
13.0919,336
13.0976,292
13.1034,333
13.1091,500
13.1148,459
13.1205,274
13.1262,280
13.132,533
13.1377,237
13.1434,360
13.1491,441
13.1549,369
13.1606,316
13.1663,378
13.172,292
13.1777,252
13.1835,359
13.1892,269
13.1949,431
13.2006,258
13.2064,420
13.2121,227
13.2178,515
13.2235,207
13.2292,395
13.235,315
13.2407,293
13.2464,480
13.2521,440
13.2578,197
13.2636,322
13.2693,323
13.275,489
13.2807,287
13.2865,614
13.2922,349
13.2979,250
13.3036,493
13.3093,310
13.3151,283
13.3208,345
13.3265,442
13.3322,606
13.338,256
13.3437,259
13.3494,312
13.3551,315
13.3608,463
13.3666,512
13.3723,251
13.378,287
13.3837,403
13.3895,525
13.3952,305
13.4009,468
13.4066,255
13.4123,358
13.4181,289
13.4238,407
13.4295,526
13.4352,321
13.441,296
13.4467,322
13.4524,402
13.4581,303
13.4638,430
13.4696,328
13.4753,344
13.481,337
13.4867,341
13.4924,520
13.4982,335
13.5039,268
13.5096,476
13.5153,303
13.5211,394
13.5268,561
13.5325,522
13.5382,367
13.5439,326
13.5497,363
13.5554,295
13.5611,261
13.5668,333
13.5726,556
13.5783,402
13.584,510
13.5897,530
13.5954,685
13.6012,294
13.6069,546
13.6126,346
13.6183,564
13.6241,688
13.6298,219
13.6355,491
13.6412,445
13.6469,642
13.6527,556
13.6584,467
13.6641,584
13.6698,346
13.6756,462
13.6813,559
13.687,567
13.6927,455
13.6984,402
13.7042,586
13.7099,628
13.7156,565
13.7213,644
13.7271,582
13.7328,566
13.7385,325
13.7442,352
13.7499,542
13.7557,530
13.7614,591
13.7671,255
13.7728,666
13.7785,577
13.7843,659
13.79,729
13.7957,510
13.8014,834
13.8072,690
13.8129,657
13.8186,533
13.8243,626
13.83,558
13.8358,539
13.8415,684
13.8472,550
13.8529,605
13.8587,647
13.8644,651
13.8701,526
13.8758,559
13.8815,579
13.8873,699
13.893,414
13.8987,569
13.9044,691
13.9102,646
13.9159,641
13.9216,738
13.9273,735
13.933,455
13.9388,531
13.9445,592
13.9502,689
13.9559,588
13.9617,362
13.9674,550
13.9731,756
13.9788,503
13.9845,566
13.9903,737
13.996,854
14.0017,564
14.0074,701
14.0131,630
14.0189,638
14.0246,709
14.0303,816
14.036,866
14.0418,573
14.0475,601
14.0532,505
14.0589,690
14.0646,662
14.0704,561
14.0761,709
14.0818,661
14.0875,643
14.0933,758
14.099,767
14.1047,575
14.1104,806
14.1161,703
14.1219,753
14.1276,674
14.1333,630
14.139,873
14.1448,910
14.1505,689
14.1562,719
14.1619,695
14.1676,436
14.1734,894
14.1791,698
14.1848,730
14.1905,659
14.1963,822
14.202,878
14.2077,818
14.2134,1397
14.2191,3000
14.2249,5679
14.2306,7841
14.2363,6893
14.242,4990
14.2478,2900
14.2535,1132
14.2592,1312
14.2649,801
14.2706,1048
14.2764,746
14.2821,686
14.2878,1085
14.2935,744
14.2992,671
14.305,787
14.3107,749
14.3164,886
14.3221,933
14.3279,810
14.3336,696
14.3393,833
14.345,744
14.3507,805
14.3565,847
14.3622,996
14.3679,917
14.3736,804
14.3794,1033
14.3851,876
14.3908,1092
14.3965,949
14.4022,937
14.408,917
14.4137,861
14.4194,834
14.4251,1047
14.4309,952
14.4366,1172
14.4423,1125
14.448,944
14.4537,814
14.4595,995
14.4652,1101
14.4709,768
14.4766,1122
14.4824,984
14.4881,1163
14.4938,1252
14.4995,797
14.5052,1059
14.511,915
14.5167,892
14.5224,870
14.5281,1246
14.5338,1178
14.5396,1046
14.5453,1123
14.551,806
14.5567,1114
14.5625,789
14.5682,743
14.5739,923
14.5796,980
14.5853,946
14.5911,997
14.5968,952
14.6025,976
14.6082,1222
14.614,986
14.6197,1218
14.6254,1013
14.6311,1180
14.6368,1139
14.6426,1097
14.6483,1048
14.654,897
14.6597,1324
14.6655,957
14.6712,1335
14.6769,870
14.6826,1187
14.6883,1006
14.6941,1429
14.6998,1082
14.7055,939
14.7112,1493
14.717,1089
14.7227,1145
14.7284,1032
14.7341,1076
14.7398,1109
14.7456,882
14.7513,855
14.757,1197
14.7627,1166
14.7684,1370
14.7742,1110
14.7799,1260
14.7856,1153
14.7913,1019
14.7971,1419
14.8028,1122
14.8085,1098
14.8142,1145
14.8199,1286
14.8257,981
14.8314,1269
14.8371,1259
14.8428,1111
14.8486,1087
14.8543,1352
14.86,1139
14.8657,1258
14.8714,1122
14.8772,1585
14.8829,1471
14.8886,1555
14.8943,1124
14.9001,1413
14.9058,1344
14.9115,1491
14.9172,1679
14.9229,1738
14.9287,1226
14.9344,1067
14.9401,1425
14.9458,1338
14.9516,1735
14.9573,1690
14.963,1347
14.9687,1853
14.9744,1564
14.9802,1428
14.9859,2036
14.9916,1989
14.9973,1483
15.0031,1397
15.0088,1276
15.0145,1474
15.0202,1204
15.0259,1974
15.0317,1758
15.0374,1613
15.0431,1657
15.0488,1595
15.0545,1991
15.0603,1612
15.066,1732
15.0717,1794
15.0774,1190
15.0832,2005
15.0889,1613
15.0946,1715
15.1003,1206
15.106,1810
15.1118,2004
15.1175,1913
15.1232,1813
15.1289,2101
15.1347,1344
15.1404,1816
15.1461,1586
15.1518,1782
15.1575,1929
15.1633,2106
15.169,1719
15.1747,1709
15.1804,1800
15.1862,1992
15.1919,1679
15.1976,2119
15.2033,1975
15.209,1682
15.2148,2383
15.2205,1856
15.2262,1915
15.2319,1810
15.2377,1847
15.2434,1444
15.2491,1805
15.2548,1625
15.2605,2031
15.2663,1807
15.272,2088
15.2777,1920
15.2834,1853
15.2891,1875
15.2949,2229
15.3006,1985
15.3063,2361
15.312,2108
15.3178,2206
15.3235,2161
15.3292,1843
15.3349,1992
15.3406,2114
15.3464,2113
15.3521,1793
15.3578,2140
15.3635,2294
15.3693,2303
15.375,1812
15.3807,2211
15.3864,2429
15.3921,2057
15.3979,1705
15.4036,2109
15.4093,2046
15.415,2082
15.4208,2148
15.4265,2382
15.4322,2577
15.4379,2652
15.4436,2344
15.4494,2326
15.4551,1854
15.4608,2578
15.4665,2324
15.4723,2247
15.478,2300
15.4837,2180
15.4894,2004
15.4951,2109
15.5009,2304
15.5066,1987
15.5123,2543
15.518,2909
15.5237,1958
15.5295,2600
15.5352,2368
15.5409,2447
15.5466,2933
15.5524,1926
15.5581,2405
15.5638,2565
15.5695,2422
15.5752,2567
15.581,2910
15.5867,2795
15.5924,2479
15.5981,2934
15.6039,2800
15.6096,2905
15.6153,2333
15.621,2282
15.6267,2422
15.6325,2743
15.6382,2760
15.6439,3004
15.6496,2550
15.6554,2113
15.6611,2685
15.6668,2808
15.6725,2749
15.6782,2598
15.684,2857
15.6897,2954
15.6954,2623
15.7011,2483
15.7069,3202
15.7126,3134
15.7183,2734
15.724,3029
15.7297,2978
15.7355,3368
15.7412,2973
15.7469,2954
15.7526,3165
15.7584,3210
15.7641,2476
15.7698,2920
15.7755,3084
15.7812,2952
15.787,2842
15.7927,2977
15.7984,3173
15.8041,3041
15.8098,3191
15.8156,3343
15.8213,3108
15.827,3430
15.8327,2910
15.8385,3157
15.8442,3290
15.8499,3461
15.8556,3249
15.8613,3216
15.8671,3201
15.8728,3200
15.8785,2920
15.8842,3235
15.89,3201
15.8957,3316
15.9014,3592
15.9071,3745
15.9128,3099
15.9186,3327
15.9243,3035
15.93,3504
15.9357,2797
15.9415,3468
15.9472,3991
15.9529,3504
15.9586,3436
15.9643,3639
15.9701,3209
15.9758,3399
15.9815,3619
15.9872,2847
15.993,3303
15.9987,3966
16.0044,3149
16.0101,3607
16.0158,3801
16.0216,3724
16.0273,3540
16.033,3514
16.0387,4097
16.0444,4011
16.0502,3457
16.0559,3587
16.0616,3474
16.0673,3977
16.073,3859
16.0788,4067
16.0845,3670
16.0902,3661
16.0959,3919
16.1017,4035
16.1074,3950
16.1131,4242
16.1188,4494
16.1245,4272
16.1303,4549
16.136,4326
16.1417,3968
16.1474,4039
16.1532,3914
16.1589,4516
16.1646,4344
16.1703,4015
16.1761,4125
16.1818,4389
16.1875,4695
16.1932,4671
16.1989,4161
16.2047,4092
16.2104,4746
16.2161,4268
16.2218,4695
16.2276,4866
16.2333,4691
16.239,4698
16.2447,4193
16.2504,4185
16.2562,4834
16.2619,4275
16.2676,4754
16.2733,4258
16.279,4370
16.2848,4611
16.2905,4671
16.2962,4794
16.3019,4584
16.3076,4549
16.3134,4394
16.3191,4012
16.3248,4548
16.3305,5323
16.3363,4600
16.342,4650
16.3477,5197
16.3534,4833
16.3592,4771
16.3649,4702
16.3706,4958
16.3763,5244
16.382,5491
16.3878,4640
16.3935,4522
16.3992,4495
16.4049,4827
16.4107,5574
16.4164,5151
16.4221,4998
16.4278,4925
16.4335,4885
16.4393,4769
16.445,5130
16.4507,4901
16.4564,5616
16.4622,4880
16.4679,5613
16.4736,4960
16.4793,5289
16.485,5012
16.4907,5136
16.4965,5316
16.5022,5590
16.5079,4902
16.5136,5813
16.5194,4791
16.5251,5122
16.5308,5122
16.5365,5487
16.5422,6155
16.548,5675
16.5537,5792
16.5594,5160
16.5651,5363
16.5709,5564
16.5766,5892
16.5823,6096
16.588,5470
16.5938,5199
16.5995,5420
16.6052,5943
16.6109,5459
16.6166,5812
16.6224,6159
16.6281,5842
16.6338,6523
16.6395,5647
16.6453,5634
16.651,6209
16.6567,5953
16.6624,6028
16.6681,5839
16.6739,6069
16.6796,5890
16.6853,5696
16.691,5773
16.6968,6115
16.7025,5983
16.7082,6564
16.7139,7151
16.7196,6606
16.7253,6248
16.7311,6057
16.7368,6477
16.7425,5978
16.7482,5560
16.754,6575
16.7597,6733
16.7654,5918
16.7711,5927
16.7769,6049
16.7826,6755
16.7883,6624
16.794,7160
16.7997,7044
16.8055,6036
16.8112,6841
16.8169,7206
16.8226,7256
16.8284,7600
16.8341,6231
16.8398,7464
16.8455,7187
16.8512,6542
16.857,6745
16.8627,7559
16.8684,6466
16.8741,7273
16.8799,7254
16.8856,7282
16.8913,7046
16.897,7042
16.9027,7057
16.9084,6954
16.9142,7357
16.9199,7586
16.9256,7038
16.9313,6729
16.9371,6814
16.9428,7350
16.9485,7278
16.9542,6941
16.9599,7188
16.9657,7691
16.9714,7599
16.9771,8106
16.9828,6997
16.9886,6980
16.9943,8283
17,7625
17.0057,7659
17.0115,6969
17.0172,7442
17.0229,7787
17.0286,8099
17.0343,8000
17.0401,8540
17.0458,7582
17.0515,7465
17.0572,7939
17.063,8119
17.0687,7510
17.0744,8250
17.0801,8005
17.0858,8909
17.0916,7102
17.0973,8164
17.103,8372
17.1087,8268
17.1145,8546
17.1202,7482
17.1259,8009
17.1316,8193
17.1373,8658
17.1431,8656
17.1488,8708
17.1545,8091
17.1602,9053
17.1659,8388
17.1717,8517
17.1774,8586
17.1831,9013
17.1888,8535
17.1946,8761
17.2003,8372
17.206,8649
17.2117,9319
17.2174,9122
17.2232,8616
17.2289,8879
17.2346,9083
17.2403,9173
17.2461,8318
17.2518,8552
17.2575,8978
17.2632,8853
17.269,9912
17.2747,9383
17.2804,8727
17.2861,9522
17.2918,9442
17.2976,8980
17.3033,9367
17.309,9219
17.3147,9263
17.3204,10303
17.3262,9556
17.3319,9101
17.3376,9433
17.3433,9759
17.349,10143
17.3548,9720
17.3605,10247
17.3662,9869
17.3719,10054
17.3777,9132
17.3834,9252
17.3891,10250
17.3948,10431
17.4005,10193
17.4063,9841
17.412,9772
17.4177,10835
17.4234,9734
17.4292,9658
17.4349,10689
17.4406,9847
17.4463,10470
17.4521,10512
17.4578,10425
17.4635,10547
17.4692,11078
17.4749,10190
17.4807,10278
17.4864,10470
17.4921,10905
17.4978,10399
17.5036,11031
17.5093,11623
17.515,10376
17.5207,10597
17.5264,10356
17.5322,11011
17.5379,11374
17.5436,11029
17.5493,11067
17.555,10445
17.5608,11853
17.5665,10785
17.5722,10498
17.5779,12103
17.5837,12158
17.5894,11134
17.5951,11468
17.6008,11479
17.6065,11467
17.6123,11102
17.618,12267
17.6237,11837
17.6294,11514
17.6351,10545
17.6409,11798
17.6466,11459
17.6523,11487
17.658,11857
17.6638,12231
17.6695,12208
17.6752,11410
17.6809,12067
17.6867,12430
17.6924,11499
17.6981,12338
17.7038,11914
17.7095,12416
17.7153,11335
17.721,12989
17.7267,11886
17.7324,12235
17.7382,13022
17.7439,11800
17.7496,12740
17.7553,12531
17.761,12152
17.7668,13317
17.7725,13083
17.7782,12640
17.7839,12366
17.7897,12660
17.7954,12835
17.8011,13033
17.8068,13393
17.8125,12229
17.8183,13057
17.824,12741
17.8297,12246
17.8354,13744
17.8411,12743
17.8469,13163
17.8526,13061
17.8583,13308
17.864,13214
17.8698,13557
17.8755,13401
17.8812,13867
17.8869,12883
17.8926,14494
17.8984,13621
17.9041,13874
17.9098,13879
17.9155,14177
17.9213,14032
17.927,13314
17.9327,14061
17.9384,13159
17.9441,13591
17.9499,12988
17.9556,13808
17.9613,13296
17.967,13847
17.9728,14928
17.9785,14233
17.9842,14061
17.9899,14608
17.9956,14703
18.0014,14447
18.0071,14327
18.0128,14106
18.0185,14729
18.0243,14535
18.03,14181
18.0357,14603
18.0414,14314
18.0471,14460
18.0528,14290
18.0586,15387
18.0643,14414
18.07,15081
18.0757,15692
18.0815,14755
18.0872,14599
18.0929,14284
18.0986,14030
18.1044,15027
18.1101,14709
18.1158,14950
18.1215,14746
18.1272,15360
18.133,15520
18.1387,15315
18.1444,15946
18.1501,15062
18.1559,14312
18.1616,15858
18.1673,15860
18.173,15842
18.1787,15333
18.1845,15992
18.1902,15917
18.1959,16155
18.2016,16024
18.2074,16272
18.2131,16000
18.2188,15183
18.2245,16230
18.2302,17017
18.236,16025
18.2417,16058
18.2474,16012
18.2531,16592
18.2589,15383
18.2646,16300
18.2703,15913
18.276,16745
18.2817,16212
18.2875,16653
18.2932,15821
18.2989,16288
18.3046,16564
18.3103,16609
18.3161,17734
18.3218,16347
18.3275,17563
18.3332,16119
18.339,16832
18.3447,16789
18.3504,16988
18.3561,17661
18.3618,17038
18.3676,17113
18.3733,17796
18.379,17322
18.3847,15931
18.3905,18118
18.3962,17259
18.4019,18530
18.4076,17053
18.4133,17229
18.4191,17960
18.4248,17866
18.4305,17125
18.4362,17211
18.442,17646
18.4477,17758
18.4534,17951
18.4591,19023
18.4648,18297
18.4705,17509
18.4763,17802
18.482,19174
18.4877,17265
18.4934,17776
18.4992,17741
18.5049,18378
18.5106,18050
18.5163,18642
18.5221,17802
18.5278,18855
18.5335,18184
18.5392,18610
18.545,18933
18.5507,18499
18.5564,19451
18.5621,19074
18.5678,18738
18.5736,17687
18.5793,17586
18.585,18239
18.5907,18087
18.5964,18151
18.6022,17259
18.6079,18146
18.6136,18367
18.6193,18521
18.6251,19506
18.6308,18291
18.6365,19442
18.6422,19222
18.6479,18968
18.6537,20229
18.6594,19112
18.6651,19162
18.6708,18941
18.6766,20136
18.6823,19043
18.688,19540
18.6937,20420
18.6994,19732
18.7052,20516
18.7109,19621
18.7166,19931
18.7223,18021
18.7281,19287
18.7338,19361
18.7395,20154
18.7452,20100
18.7509,20651
18.7567,20404
18.7624,19687
18.7681,19633
18.7738,20000
18.7796,21319
18.7853,20397
18.791,20198
18.7967,20502
18.8024,20184
18.8082,21532
18.8139,19840
18.8196,20379
18.8253,21079
18.831,19938
18.8368,20713
18.8425,19971
18.8482,21479
18.8539,20080
18.8597,20907
18.8654,20717
18.8711,21098
18.8768,21529
18.8825,20228
18.8883,20375
18.894,20742
18.8997,20551
18.9054,20547
18.9111,20917
18.9169,20927
18.9226,21320
18.9283,20582
18.934,20513
18.9398,20528
18.9455,21019
18.9512,20896
18.9569,20228
18.9627,20996
18.9684,20966
18.9741,21014
18.9798,20797
18.9855,21509
18.9913,21293
18.997,20890
19.0027,21457
19.0084,22259
19.0142,21195
19.0199,21826
19.0256,22066
19.0313,21891
19.037,21249
19.0428,21663
19.0485,22186
19.0542,21570
19.0599,21297
19.0656,20396
19.0714,21179
19.0771,21754
19.0828,21812
19.0885,21755
19.0943,22138
19.1,21969
19.1057,21724
19.1114,21837
19.1171,23024
19.1229,22232
19.1286,23091
19.1343,22467
19.14,20887
19.1458,21826
19.1515,22785
19.1572,22938
19.1629,22177
19.1686,21489
19.1744,22540
19.1801,21912
19.1858,21901
19.1915,23347
19.1973,23324
19.203,21411
19.2087,22716
19.2144,22660
19.2201,21413
19.2259,21827
19.2316,22585
19.2373,23079
19.243,23239
19.2488,22371
19.2545,22246
19.2602,21168
19.2659,23119
19.2716,23187
19.2774,21620
19.2831,22616
19.2888,23421
19.2945,21988
19.3003,23154
19.306,22457
19.3117,23326
19.3174,22434
19.3231,22078
19.3288,22847
19.3346,22722
19.3403,23342
19.346,21570
19.3517,23370
19.3575,22297
19.3632,22024
19.3689,22732
19.3746,22741
19.3804,23132
19.3861,23331
19.3918,21765
19.3975,22132
19.4032,23060
19.409,22899
19.4147,22301
19.4204,22813
19.4261,22713
19.4319,23379
19.4376,23022
19.4433,23750
19.449,22660
19.4547,23208
19.4605,23473
19.4662,23750
19.4719,22619
19.4776,22760
19.4834,22855
19.4891,22326
19.4948,23175
19.5005,22111
19.5062,22426
19.512,22327
19.5177,23164
19.5234,22447
19.5291,23234
19.5349,22751
19.5406,22272
19.5463,21604
19.552,22680
19.5577,22480
19.5635,23333
19.5692,23436
19.5749,22610
19.5806,22672
19.5863,22713
19.5921,21877
19.5978,22635
19.6035,22570
19.6092,21686
19.615,21872
19.6207,21679
19.6264,23190
19.6321,22792
19.6378,23381
19.6436,23167
19.6493,23038
19.655,21874
19.6607,23520
19.6665,23134
19.6722,22173
19.6779,23895
19.6836,21720
19.6893,23204
19.6951,22842
19.7008,22497
19.7065,23402
19.7122,22048
19.718,22316
19.7237,23247
19.7294,20969
19.7351,22207
19.7408,23433
19.7466,21985
19.7523,23336
19.758,23077
19.7637,22410
19.7695,22475
19.7752,22818
19.7809,22360
19.7866,22779
19.7923,22293
19.7981,23087
19.8038,23284
19.8095,22385
19.8152,22981
19.8209,21587
19.8267,23287
19.8324,21807
19.8381,23537
19.8438,23451
19.8496,24479
19.8553,21580
19.861,23086
19.8667,22402
19.8724,22854
19.8782,23579
19.8839,24049
19.8896,22416
19.8953,22575
19.9011,23845
19.9068,23738
19.9125,22120
19.9182,22896
19.9239,22850
19.9297,23181
19.9354,22051
19.9411,21835
19.9468,22374
19.9526,22219
19.9583,22773
19.964,22185
19.9697,22509
19.9754,22551
19.9812,22570
19.9869,22869
19.9926,22289
19.9983,22040
20.004,23100
20.0098,22383
20.0155,22857
20.0212,22256
20.0269,21386
20.0327,22919
20.0384,22959
20.0441,23424
20.0498,22853
20.0556,22736
20.0613,22961
20.067,23669
20.0727,22993
20.0784,22592
20.0842,22501
20.0899,22329
20.0956,22187
20.1013,22162
20.107,23227
20.1128,22540
20.1185,22564
20.1242,23077
20.1299,23177
20.1357,22985
20.1414,22370
20.1471,23474
20.1528,22713
20.1585,22428
20.1643,23291
20.17,21764
20.1757,22421
20.1814,23233
20.1872,23536
20.1929,23388
20.1986,22134
20.2043,22453
20.21,22142
20.2158,22649
20.2215,22489
20.2272,22308
20.2329,22380
20.2387,22392
20.2444,23697
20.2501,22405
20.2558,23352
20.2615,23412
20.2673,22597
20.273,22433
20.2787,23317
20.2844,22738
20.2902,22725
20.2959,23465
20.3016,21820
20.3073,23776
20.313,22738
20.3188,21784
20.3245,22136
20.3302,22029
20.3359,22725
20.3416,21938
20.3474,23728
20.3531,23380
20.3588,23231
20.3645,22979
20.3703,22614
20.376,22413
20.3817,22751
20.3874,22612
20.3931,22904
20.3989,23377
20.4046,22323
20.4103,23458
20.416,22897
20.4217,22101
20.4275,22747
20.4332,22916
20.4389,22511
20.4446,23894
20.4504,23908
20.4561,22853
20.4618,23477
20.4675,23103
20.4733,22722
20.479,22481
20.4847,21960
20.4904,22773
20.4961,22847
20.5019,22295
20.5076,22451
20.5133,23093
20.519,22589
20.5248,22787
20.5305,22887
20.5362,23573
20.5419,23177
20.5476,22138
20.5534,23561
20.5591,23131
20.5648,22742
20.5705,21739
20.5762,22944
20.582,23649
20.5877,22879
20.5934,23515
20.5991,23082
20.6049,23971
20.6106,23701
20.6163,24039
20.622,22803
20.6277,23407
20.6335,22208
20.6392,23362
20.6449,22244
20.6506,21746
20.6564,23838
20.6621,23559
20.6678,23249
20.6735,23530
20.6792,22906
20.685,22387
20.6907,22393
20.6964,21977
20.7021,22903
20.7079,23396
20.7136,24124
20.7193,22983
20.725,22564
20.7307,23489
20.7365,22995
20.7422,23013
20.7479,23219
20.7536,22681
20.7594,23645
20.7651,23498
20.7708,22981
20.7765,23073
20.7822,22352
20.788,22575
20.7937,21587
20.7994,22054
20.8051,23242
20.8109,22962
20.8166,23202
20.8223,22750
20.828,22939
20.8337,22832
20.8394,23331
20.8452,22886
20.8509,22568
20.8566,22986
20.8623,22835
20.8681,22907
20.8738,22363
20.8795,21882
20.8852,22747
20.891,23022
20.8967,23003
20.9024,23033
20.9081,22723
20.9138,23677
20.9196,23412
20.9253,23442
20.931,23607
20.9367,23565
20.9425,22503
20.9482,23253
20.9539,22980
20.9596,22765
20.9653,23102
20.9711,22558
20.9768,23224
20.9825,22380
20.9882,23314
20.994,22922
20.9997,22763
21.0054,22944
21.0111,23375
21.0168,23876
21.0226,22153
21.0283,22506
21.034,22039
21.0397,23127
21.0455,23149
21.0512,24070
21.0569,22854
21.0626,22901
21.0683,21901
21.0741,23175
21.0798,23652
21.0855,22180
21.0912,22159
21.0969,22917
21.1027,22621
21.1084,23352
21.1141,22480
21.1198,21949
21.1256,22599
21.1313,23062
21.137,22555
21.1427,23751
21.1484,22999
21.1542,23066
21.1599,22245
21.1656,22587
21.1713,21972
21.1771,22664
21.1828,23913
21.1885,23023
21.1942,22546
21.1999,22533
21.2057,23010
21.2114,22835
21.2171,23796
21.2228,23323
21.2286,22974
21.2343,22954
21.24,23519
21.2457,23538
21.2514,23224
21.2571,22944
21.2629,23015
21.2686,24191
21.2743,22936
21.28,21943
21.2858,24575
21.2915,24157
21.2972,22020
21.3029,23894
21.3087,22157
21.3144,22460
21.3201,22967
21.3258,22432
21.3316,23609
21.3373,23344
21.343,24005
21.3487,22400
21.3544,23197
21.3602,23378
21.3659,24139
21.3716,23652
21.3773,23246
21.383,22859
21.3888,23753
21.3945,22984
21.4002,22885
21.4059,22815
21.4117,22970
21.4174,22608
21.4231,23168
21.4288,23845
21.4345,25058
21.4403,22515
21.446,23804
21.4517,22475
21.4574,24354
21.4632,22957
21.4689,23778
21.4746,23015
21.4803,22937
21.486,23176
21.4918,23350
21.4975,23956
21.5032,23546
21.5089,22250
21.5147,23430
21.5204,22886
21.5261,22774
21.5318,22492
21.5375,22980
21.5433,22990
21.549,23191
21.5547,23098
21.5604,23853
21.5662,23016
21.5719,22877
21.5776,23743
21.5833,23131
21.589,22543
21.5948,23370
21.6005,23769
21.6062,22910
21.6119,23507
21.6176,23191
21.6234,23492
21.6291,22843
21.6348,22666
21.6405,23467
21.6463,21823
21.652,24418
21.6577,23325
21.6634,22091
21.6691,23712
21.6749,22307
21.6806,23430
21.6863,22851
21.692,24133
21.6978,23243
21.7035,22009
21.7092,22559
21.7149,22530
21.7206,22962
21.7264,23615
21.7321,23226
21.7378,22229
21.7435,22800
21.7493,22200
21.755,22691
21.7607,23308
21.7664,22382
21.7721,23794
21.7779,23665
21.7836,23231
21.7893,22608
21.795,23539
21.8008,22176
21.8065,23735
21.8122,24403
21.8179,22164
21.8236,22639
21.8294,22958
21.8351,21985
21.8408,22633
21.8465,22676
21.8522,24046
21.858,22883
21.8637,22892
21.8694,23933
21.8751,21711
21.8809,23341
21.8866,23207
21.8923,22723
21.898,22811
21.9037,22515
21.9095,23474
21.9152,22545
21.9209,23662
21.9266,22766
21.9324,22988
21.9381,23296
21.9438,21884
21.9495,23023
21.9552,22832
21.961,23672
21.9667,23285
21.9724,22976
21.9781,22537
21.9839,23043
21.9896,22856
21.9953,23746
22.001,21750
22.0067,23638
22.0125,23245
22.0182,23394
22.0239,23222
22.0296,22471
22.0354,22711
22.0411,22600
22.0468,22962
22.0525,22466
22.0582,23329
22.064,22255
22.0697,22743
22.0754,23038
22.0811,23920
22.0869,23610
22.0926,22771
22.0983,24361
22.104,22506
22.1097,22468
22.1155,22730
22.1212,23802
22.1269,23686
22.1326,23193
22.1383,21957
22.1441,23026
22.1498,22535
22.1555,23331
22.1612,24491
22.167,24778
22.1727,22908
22.1784,23427
22.1841,23697
22.1898,23351
22.1956,23183
22.2013,23559
22.207,22966
22.2127,22356
22.2185,22909
22.2242,22730
22.2299,23728
22.2356,23841
22.2413,22801
22.2471,23183
22.2528,23180
22.2585,22406
22.2642,23351
22.27,24226
22.2757,23916
22.2814,23150
22.2871,23244
22.2928,24294
22.2986,23261
22.3043,23411
22.31,24510
22.3157,23483
22.3215,22984
22.3272,24315
22.3329,22984
22.3386,23030
22.3443,22920
22.3501,22707
22.3558,23912
22.3615,23723
22.3672,23921
22.3729,22930
22.3787,23736
22.3844,23393
22.3901,24190
22.3958,22408
22.4016,22501
22.4073,24008
22.413,23699
22.4187,22936
22.4244,22673
22.4302,24048
22.4359,22457
22.4416,22773
22.4473,23532
22.4531,23498
22.4588,23427
22.4645,23752
22.4702,22426
22.4759,23837
22.4817,22718
22.4874,22541
22.4931,23060
