C:\MSDCHEM\1\DATA\JAMES C\20180125 LACTONE WITH BME AND HYDROXYLAMINE\MTBE 2nd Purge b.d 25 Jan 18   9:13 pm
Start of data points
3.09248,714233
3.0982,726661
3.10392,737428
3.10965,740253
3.11537,745085
3.12108,765764
3.12682,784522
3.13253,799165
3.13825,812078
3.14398,819458
3.1497,825801
3.15542,831159
3.16115,844958
3.16687,846156
3.17258,850886
3.17832,843784
3.18403,863152
3.18975,859633
3.19547,858795
3.2012,849025
3.20692,845635
3.21263,845685
3.21837,849319
3.22408,837238
3.2298,836353
3.23553,821755
3.24125,799165
3.24697,792578
3.2527,787889
3.25842,772908
3.26413,750550
3.26987,745384
3.27558,747348
3.2813,750339
3.28703,745136
3.29275,728835
3.29847,731870
3.3042,733762
3.30992,731685
3.31563,716169
3.32135,722618
3.32708,730705
3.3328,729141
3.33852,721544
3.34425,726756
3.34997,720476
3.35568,720621
3.36142,724852
3.36713,718697
3.37285,709856
3.37858,717119
3.3843,718788
3.39002,715263
3.39575,716117
3.40147,709023
3.40718,707532
3.41292,713376
3.41863,700987
3.42435,699301
3.43008,685889
3.4358,683389
3.44152,678382
3.44723,685832
3.45297,682079
3.45868,676559
3.4644,673361
3.47013,679002
3.47585,674065
3.48157,678000
3.4873,669182
3.49302,664857
3.49873,669798
3.50447,657192
3.51018,655891
3.5159,647160
3.52163,647002
3.52735,654773
3.53307,649076
3.5388,637514
3.54452,640286
3.55023,645096
3.55597,642801
3.56168,642130
3.5674,646116
3.57312,642977
3.57885,646195
3.58457,648589
3.59028,640180
3.59602,639818
3.60173,632303
3.60745,631405
3.61318,636604
3.6189,632002
3.62462,631199
3.63035,634208
3.63607,635287
3.64178,628482
3.64752,620436
3.65323,623135
3.65895,626588
3.66468,631413
3.6704,637253
3.67612,636510
3.68185,636046
3.68757,623825
3.69328,619931
3.699,623023
3.70473,627408
3.71045,626429
3.71617,624171
3.7219,620728
3.72762,620883
3.73333,615041
3.73907,619562
3.74478,623492
3.7505,619017
3.75623,618257
3.76195,612015
3.76767,614950
3.7734,616248
3.77912,613485
3.78483,609163
3.79057,599719
3.79628,613960
3.802,607086
3.80773,610512
3.81345,612865
3.81917,601494
3.82488,592760
3.83062,599490
3.83633,592755
3.84205,605801
3.84778,604989
3.8535,604119
3.85922,606195
3.86495,606452
3.87067,608825
3.87638,610906
3.88212,604124
3.88783,592715
3.89355,597528
3.89928,602856
3.905,593768
3.91072,593080
3.91645,591656
3.92217,591511
3.92788,592211
3.93362,589760
3.93933,589547
3.94505,593123
3.95077,594541
3.9565,593452
3.96222,586398
3.96793,587218
3.97367,588467
3.97938,586128
3.9851,589840
3.99083,583723
3.99655,596546
4.00227,587716
4.008,591638
4.01372,584648
4.01943,590897
4.02517,581277
4.03088,594124
4.0366,585923
4.04233,591281
4.04805,593221
4.05377,592456
4.0595,583010
4.06522,579134
4.07093,588162
4.07665,583408
4.08238,572962
4.0881,580143
4.09382,574262
4.09955,572962
4.10527,576703
4.11098,580657
4.11672,576168
4.12243,566922
4.12815,571226
4.13388,573784
4.1396,573742
4.14532,576282
4.15105,570207
4.15677,569956
4.16248,571768
4.16822,565141
4.17393,569278
4.17965,564060
4.18538,566519
4.1911,564562
4.19682,572695
4.20253,574701
4.20827,578192
4.21398,570333
4.2197,574637
4.22543,567571
4.23115,566079
4.23687,560707
4.2426,565545
4.24832,565566
4.25403,569926
4.25977,566507
4.26548,559542
4.2712,557292
4.27693,567732
4.28265,557262
4.28837,558608
4.2941,547591
4.29982,543935
4.30553,545635
4.31127,559004
4.31698,549407
4.3227,553573
4.32842,559073
4.33415,553219
4.33987,554320
4.34558,552903
4.35132,543636
4.35703,546470
4.36275,545231
4.36848,535387
4.3742,550131
4.37992,544989
4.38565,543085
4.39137,547743
4.39708,539431
4.40282,538387
4.40853,535473
4.41425,544170
4.41998,542875
4.4257,544789
4.43142,532591
4.43715,538319
4.44287,533672
4.44858,539266
4.4543,533518
4.46003,541877
4.46575,540082
4.47147,539577
4.4772,546551
4.48292,534907
4.48863,543670
4.49437,537326
4.50008,535748
4.5058,536620
4.51153,538048
4.51725,534141
4.52297,529733
4.5287,536495
4.53442,532806
4.54013,535953
4.54587,534853
4.55158,541693
4.5573,536074
4.56303,530634
4.56875,531504
4.57447,524044
4.58018,524701
4.58592,525190
4.59163,524191
4.59735,531000
4.60308,527515
4.6088,529293
4.61452,528699
4.62025,522079
4.62597,520728
4.63168,520547
4.63742,520646
4.64313,519609
4.64885,522201
4.65458,517171
4.6603,520128
4.66602,524555
4.67175,511289
4.67747,521175
4.68318,512578
4.68892,515871
4.69463,521687
4.70035,518260
4.70607,521109
4.7118,519667
4.71752,514676
4.72323,521395
4.72897,519671
4.73468,516187
4.7404,515204
4.74613,518698
4.75185,516552
4.75757,517806
4.7633,515619
4.76902,511595
4.77473,508602
4.78047,509612
4.78618,512831
4.7919,512000
4.79763,509895
4.80335,511931
4.80907,513467
4.8148,503140
4.82052,508369
4.82623,507735
4.83195,508214
4.83768,507994
4.8434,508764
4.84912,505632
4.85485,501577
4.86057,502756
4.86628,501312
4.87202,504171
4.87773,502651
4.88345,499297
4.88918,495848
4.8949,503627
4.90062,498634
4.90635,504728
4.91207,506309
4.91778,504921
4.92352,505940
4.92923,501691
4.93495,504200
4.94068,499441
4.9464,498526
4.95212,495415
4.95783,501514
4.96357,497422
4.96928,500577
4.975,505514
4.98073,501248
4.98645,499931
4.99217,493267
4.9979,497858
5.00362,490420
5.00933,497317
5.01507,497591
5.02078,492262
5.0265,500119
5.03223,501919
5.03795,503590
5.04367,502838
5.0494,501249
5.05512,493710
5.06083,492384
5.06657,495922
5.07228,503920
5.078,494049
5.08372,497472
5.08945,492859
5.09517,492155
5.10088,498155
5.10662,496675
5.11233,498132
5.11805,493045
5.12378,490816
5.1295,494181
5.13522,497213
5.14095,498209
5.14667,494678
5.15238,500870
5.15812,494673
5.16383,498224
5.16955,497147
5.17528,499550
5.181,490890
5.18672,499949
5.19245,500034
5.19817,495685
5.20388,502783
5.2096,498073
5.21533,491522
5.22105,500091
5.22677,493803
5.2325,486442
5.23822,495883
5.24393,491345
5.24967,489286
5.25538,491196
5.2611,494710
5.26683,486815
5.27255,493043
5.27827,496156
5.284,495558
5.28972,488026
5.29543,485821
5.30117,487690
5.30688,480960
5.3126,484381
5.31833,488378
5.32405,481735
5.32977,490431
5.33548,485819
5.34122,482670
5.34693,486099
5.35265,491135
5.35838,481452
5.3641,486327
5.36982,484776
5.37555,486613
5.38127,488187
5.38698,483462
5.39272,480489
5.39843,475478
5.40415,485309
5.40988,482944
5.4156,480476
5.42132,482847
5.42705,481097
5.43277,478327
5.43848,476537
5.44422,479673
5.44993,475255
5.45565,483640
5.46137,486615
5.4671,484965
5.47282,480515
5.47853,475262
5.48427,482540
5.48998,481098
5.4957,479575
5.50143,474559
5.50715,474249
5.51287,467931
5.5186,477374
5.52432,475292
5.53003,472362
5.53577,472109
5.54148,474309
5.5472,470892
5.55293,474364
5.55865,470644
5.56437,475387
5.5701,483108
5.57582,475173
5.58153,471184
5.58725,479097
5.59298,474329
5.5987,474169
5.60442,465927
5.61015,475511
5.61587,478996
5.62158,463125
5.62732,467678
5.63303,470200
5.63875,470444
5.64448,465127
5.6502,469320
5.65592,467871
5.66165,467156
5.66737,466337
5.67308,472976
5.67882,468087
5.68453,470087
5.69025,464714
5.69598,468838
5.7017,470405
5.70742,467079
5.71313,469750
5.71887,471704
5.72458,467548
5.7303,469140
5.73603,468227
5.74175,470978
5.74747,470203
5.7532,468874
5.75892,469281
5.76463,461956
5.77037,460801
5.77608,467392
5.7818,458429
5.78753,459491
5.79325,469072
5.79897,460598
5.8047,463655
5.81042,465278
5.81613,461883
5.82187,459256
5.82758,462112
5.8333,464681
5.83902,459919
5.84475,464704
5.85047,453274
5.85618,465585
5.86192,463326
5.86763,460873
5.87335,465227
5.87908,463874
5.8848,472625
5.89052,467757
5.89625,465785
5.90197,464900
5.90768,462922
5.91342,473706
5.91913,467776
5.92485,467242
5.93058,466638
5.9363,467459
5.94202,472098
5.94775,470897
5.95347,468114
5.95918,465379
5.9649,468896
5.97063,462804
5.97635,464496
5.98207,475269
5.9878,466093
5.99352,463406
