C:\MSDCHEM\1\DATA\MANDKHAI\20180626 MTH_C12COA\SLR_NltAB_E57A_BPER_1.d 27 Jun 18   2:12 pm
Start of data points
5.09253,187
5.09827,254
5.10398,453
5.1097,183
5.11543,208
5.12115,161
5.12687,0
5.1326,211
5.13832,174
5.14403,167
5.14977,270
5.15548,236
5.1612,0
5.16693,357
5.17265,208
5.17837,240
5.1841,171
5.18982,0
5.19553,0
5.20127,208
5.20698,152
5.2127,0
5.21842,221
5.22415,269
5.22987,0
5.23558,168
5.24132,0
5.24703,0
5.25275,279
5.25848,0
5.2642,166
5.26992,179
5.27565,0
5.28137,0
5.28708,0
5.29282,0
5.29853,207
5.30425,285
5.30998,175
5.3157,0
5.32142,342
5.32715,0
5.33287,0
5.33858,0
5.3443,0
5.35003,0
5.35575,222
5.36147,280
5.3672,152
5.37292,0
5.37863,158
5.38437,206
5.39008,0
5.3958,0
5.40153,277
5.40725,156
5.41297,211
5.4187,0
5.42442,202
5.43013,170
5.43587,0
5.44158,0
5.4473,0
5.45303,154
5.45875,0
5.46447,162
5.47018,152
5.47592,0
5.48163,179
5.48735,0
5.49308,0
5.4988,0
5.50452,175
5.51025,0
5.51597,184
5.52168,151
5.52742,183
5.53313,0
5.53885,0
5.54458,156
5.5503,0
5.55602,174
5.56175,169
5.56747,0
5.57318,151
5.57892,187
5.58463,166
5.59035,0
5.59607,0
5.6018,0
5.60752,0
5.61323,205
5.61897,0
5.62468,0
5.6304,0
5.63613,0
5.64185,194
5.64757,185
5.6533,171
5.65902,0
5.66473,156
5.67047,0
5.67618,0
5.6819,173
5.68763,160
5.69335,0
5.69907,150
5.7048,169
5.71052,195
5.71623,179
5.72195,0
5.72768,179
5.7334,183
5.73912,0
5.74485,157
5.75057,0
5.75628,0
5.76202,200
5.76773,0
5.77345,0
5.77918,0
5.7849,0
5.79062,0
5.79635,187
5.80207,161
5.80778,0
5.81352,0
5.81923,152
5.82495,0
5.83068,0
5.8364,0
5.84212,0
5.84783,0
5.85357,159
5.85928,0
5.865,0
5.87073,0
5.87645,0
5.88217,0
5.8879,0
5.89362,0
5.89933,162
5.90507,0
5.91078,0
5.9165,0
5.92223,0
5.92795,210
5.93367,0
5.9394,0
5.94512,0
5.95083,164
5.95657,179
5.96228,0
5.968,187
5.97373,164
5.97945,0
5.98517,0
5.99088,0
5.99662,0
6.00233,0
6.00805,0
6.01378,0
6.0195,0
6.02522,0
6.03095,0
6.03667,184
6.04238,0
6.04812,0
6.05383,0
6.05955,165
6.06528,0
6.071,158
6.07672,151
6.08245,0
6.08817,0
6.09388,187
6.09962,156
6.10533,0
6.11105,0
6.11677,0
6.1225,152
6.12822,197
6.13393,0
6.13967,185
6.14538,0
6.1511,0
6.15683,0
6.16255,0
6.16827,0
6.174,163
6.17972,0
6.18543,156
6.19117,0
6.19688,0
6.2026,0
6.20833,0
6.21405,0
6.21977,0
6.2255,0
6.23122,0
6.23693,0
6.24265,152
6.24838,157
6.2541,0
6.25982,0
6.26555,0
6.27127,0
6.27698,0
6.28272,0
6.28843,0
6.29415,0
6.29988,180
6.3056,170
6.31132,0
6.31705,184
6.32277,0
6.32848,0
6.33422,181
6.33993,0
6.34565,0
6.35138,207
6.3571,0
6.36282,0
6.36853,158
6.37427,0
6.37998,0
6.3857,0
6.39143,0
6.39715,0
6.40287,0
6.4086,0
6.41432,0
6.42003,152
6.42577,0
6.43148,0
6.4372,0
6.44293,0
6.44865,0
6.45437,0
6.4601,0
6.46582,245
6.47153,0
6.47727,0
6.48298,0
6.4887,169
6.49442,0
6.50015,0
6.50587,0
6.51158,0
6.51732,0
6.52303,0
6.52875,0
6.53448,348
6.5402,514
6.54592,378
6.55165,350
6.55737,401
6.56308,279
6.56882,523
6.57453,158
6.58025,349
6.58598,0
6.5917,162
6.59742,199
6.60315,223
6.60887,0
6.61458,0
6.6203,0
6.62603,0
6.63175,0
6.63747,0
6.6432,0
6.64892,0
6.65463,0
6.66037,158
6.66608,0
6.6718,0
6.67753,0
6.68325,0
6.68897,0
6.6947,0
6.70042,0
6.70613,0
6.71187,0
6.71758,0
6.7233,0
6.72903,195
6.73475,0
6.74047,265
6.74618,169
6.75192,286
6.75763,164
6.76335,0
6.76908,158
6.7748,0
6.78052,157
6.78625,0
6.79197,0
6.79768,0
6.80342,0
6.80913,0
6.81485,0
6.82058,0
6.8263,0
6.83202,0
6.83775,0
6.84347,0
6.84918,0
6.85492,0
6.86063,0
6.86635,0
6.87207,0
6.8778,0
6.88352,0
6.88923,0
6.89497,0
6.90068,0
6.9064,0
6.91213,0
6.91785,0
6.92357,0
6.9293,0
6.93502,0
6.94073,154
6.94647,0
6.95218,0
6.9579,0
6.96363,0
6.96935,0
6.97507,0
6.9808,0
6.98652,0
6.99223,0
6.99795,0
7.00368,190
7.0094,0
7.01512,0
7.02085,0
7.02657,153
7.03228,0
7.03802,0
7.04373,0
7.04945,0
7.05518,0
7.0609,0
7.06662,0
7.07235,0
7.07807,0
7.08378,0
7.08952,0
7.09523,193
7.10095,184
7.10668,0
7.1124,0
7.11812,0
7.12383,0
7.12957,0
7.13528,0
7.141,185
7.14673,0
7.15245,0
7.15817,0
7.1639,0
7.16962,0
7.17533,0
7.18107,0
7.18678,0
7.1925,0
7.19823,0
7.20395,0
7.20967,0
7.2154,0
7.22112,0
7.22683,0
7.23257,0
7.23828,0
7.244,0
7.24972,0
7.25545,0
7.26117,163
7.26688,0
7.27262,0
7.27833,0
7.28405,0
7.28978,0
7.2955,0
7.30122,0
7.30695,0
7.31267,0
7.31838,151
7.32412,0
7.32983,0
7.33555,169
7.34128,0
7.347,0
7.35272,0
7.35845,0
7.36417,0
7.36988,0
7.3756,0
7.38133,0
7.38705,161
7.39277,0
7.3985,0
7.40422,0
7.40993,0
7.41567,0
7.42138,0
7.4271,0
7.43283,0
7.43855,0
7.44427,0
7.45,0
7.45572,0
7.46143,0
7.46717,0
7.47288,0
7.4786,0
7.48433,0
7.49005,0
7.49577,0
7.50148,0
7.50722,0
7.51293,0
7.51865,0
7.52438,151
7.5301,0
7.53582,0
7.54155,0
7.54727,0
7.55298,0
7.55872,0
7.56443,0
7.57015,0
7.57588,0
7.5816,0
7.58732,0
7.59305,0
7.59877,0
7.60448,0
7.61022,0
7.61593,0
7.62165,0
7.62737,0
7.6331,0
7.63882,0
7.64453,0
7.65027,0
7.65598,0
7.6617,0
7.66743,0
7.67315,0
7.67887,0
7.6846,0
7.69032,0
7.69603,0
7.70177,0
7.70748,0
7.7132,0
7.71893,0
7.72465,0
7.73037,0
7.7361,0
7.74182,0
7.74753,0
7.75325,0
7.75898,0
7.7647,0
7.77042,0
7.77615,0
7.78187,0
7.78758,0
7.79332,0
7.79903,0
7.80475,0
7.81048,0
7.8162,0
7.82192,0
7.82765,0
7.83337,0
7.83908,0
7.84482,0
7.85053,0
7.85625,0
7.86198,0
7.8677,0
7.87342,0
7.87913,0
7.88487,0
7.89058,0
7.8963,0
7.90203,0
7.90775,0
7.91347,0
7.9192,0
7.92492,0
7.93063,0
7.93637,0
7.94208,0
7.9478,0
7.95353,0
7.95925,0
7.96497,0
7.9707,0
7.97642,0
7.98213,0
7.98787,0
7.99358,0
7.9993,0
8.00502,0
8.01075,0
8.01647,0
8.02218,0
8.02792,0
8.03363,0
8.03935,0
8.04508,0
8.0508,0
8.05652,0
8.06225,0
8.06797,0
8.07368,0
8.07942,0
8.08513,0
8.09085,0
8.09658,0
8.1023,0
8.10802,0
8.11375,0
8.11947,0
8.12518,0
8.1309,0
8.13663,0
8.14235,0
8.14807,0
8.1538,0
8.15952,0
8.16523,0
8.17097,0
8.17668,0
8.1824,0
8.18813,0
8.19385,0
8.19957,0
8.2053,0
8.21102,0
8.21673,0
8.22247,0
8.22818,0
8.2339,0
8.23963,0
8.24535,0
8.25107,0
8.25678,0
8.26252,0
8.26823,0
8.27395,0
8.27968,0
8.2854,0
8.29112,0
8.29685,0
8.30257,0
8.30828,0
8.31402,0
8.31973,0
8.32545,0
8.33118,0
8.3369,0
8.34262,0
8.34835,0
8.35407,0
8.35978,0
8.36552,0
8.37123,0
8.37695,0
8.38267,0
8.3884,0
8.39412,0
8.39983,0
8.40557,0
8.41128,0
8.417,0
8.42273,0
8.42845,0
8.43417,0
8.4399,0
8.44562,0
8.45133,0
8.45707,0
8.46278,0
8.4685,160
8.47423,196
8.47995,193
8.48567,173
8.4914,173
8.49712,0
8.50283,0
8.50855,0
8.51428,0
8.52,0
8.52572,0
8.53145,0
8.53717,0
8.54288,0
8.54862,0
8.55433,0
8.56005,0
8.56578,0
8.5715,0
8.57722,0
8.58295,0
8.58867,0
8.59438,159
8.60012,0
8.60583,0
8.61155,0
8.61728,0
8.623,0
8.62872,0
8.63443,0
8.64017,0
8.64588,0
8.6516,0
8.65733,0
8.66305,0
8.66877,0
8.6745,0
8.68022,0
8.68593,0
8.69167,0
8.69738,0
8.7031,0
8.70883,0
8.71455,0
8.72027,0
8.726,0
8.73172,0
8.73743,0
8.74317,0
8.74888,0
8.7546,0
8.76032,0
8.76605,153
8.77177,0
8.77748,0
8.78322,0
8.78893,0
8.79465,0
8.80038,0
8.8061,0
8.81182,0
8.81755,0
8.82327,0
8.82898,156
8.83472,0
8.84043,0
8.84615,0
8.85188,0
8.8576,0
8.86332,0
8.86905,0
8.87477,0
8.88048,0
8.8862,0
8.89193,0
8.89765,0
8.90337,0
8.9091,0
8.91482,0
8.92053,0
8.92627,0
8.93198,0
8.9377,0
8.94343,0
8.94915,0
8.95487,0
8.9606,0
8.96632,0
8.97203,0
8.97777,0
8.98348,0
8.9892,0
8.99493,0
9.00065,0
9.00637,0
9.01208,0
9.01782,0
9.02353,0
9.02925,0
9.03498,0
9.0407,0
9.04642,0
9.05215,0
9.05787,0
9.06358,0
9.06932,0
9.07503,0
9.08075,0
9.08648,0
9.0922,0
9.09792,0
9.10365,0
9.10937,0
9.11508,0
9.12082,0
9.12653,0
9.13225,0
9.13797,0
9.1437,0
9.14942,0
9.15513,0
9.16087,0
9.16658,0
9.1723,0
9.17803,0
9.18375,0
9.18947,0
9.1952,0
9.20092,0
9.20663,0
9.21237,0
9.21808,0
9.2238,0
9.22953,0
9.23525,0
9.24097,0
9.2467,0
9.25242,0
9.25813,0
9.26385,0
9.26958,0
9.2753,0
9.28102,0
9.28675,0
9.29247,0
9.29818,0
9.30392,0
9.30963,0
9.31535,0
9.32108,0
9.3268,0
9.33252,0
9.33825,0
9.34397,0
9.34968,0
9.35542,0
9.36113,0
9.36685,0
9.37258,0
9.3783,0
9.38402,0
9.38973,0
9.39547,0
9.40118,0
9.4069,0
9.41263,0
9.41835,0
9.42407,0
9.4298,0
9.43552,0
9.44123,0
9.44697,0
9.45268,0
9.4584,0
9.46413,0
9.46985,0
9.47557,0
9.4813,0
9.48702,0
9.49273,0
9.49847,0
9.50418,0
9.5099,0
9.51562,0
9.52135,0
9.52707,0
9.53278,0
9.53852,0
9.54423,0
9.54995,0
9.55568,0
9.5614,0
9.56712,0
9.57285,0
9.57857,0
9.58428,0
9.59002,0
9.59573,0
9.60145,0
9.60718,0
9.6129,0
9.61862,0
9.62435,0
9.63007,0
9.63578,0
9.64152,0
9.64723,0
9.65295,0
9.65867,0
9.6644,152
9.67012,0
9.67583,0
9.68157,0
9.68728,0
9.693,0
9.69873,0
9.70445,0
9.71017,0
9.7159,0
9.72162,0
9.72733,0
9.73307,0
9.73878,0
9.7445,0
9.75023,0
9.75595,0
9.76167,0
9.7674,0
9.77312,0
9.77883,0
9.78455,0
9.79028,0
9.796,0
9.80172,0
9.80745,0
9.81317,0
9.81888,0
9.82462,0
9.83033,0
9.83605,0
9.84178,0
9.8475,0
9.85322,0
9.85895,0
9.86467,0
9.87038,0
9.87612,0
9.88183,0
9.88755,0
9.89328,0
9.899,0
9.90472,0
9.91043,0
9.91617,0
9.92188,0
9.9276,0
9.93333,0
9.93905,0
9.94477,0
9.9505,0
9.95622,0
9.96193,0
9.96767,0
9.97338,0
9.9791,0
9.98483,0
9.99055,0
9.99627,0
10.002,0
10.0077,0
10.0134,0
10.0192,0
10.0249,0
10.0306,0
10.0363,0
10.0421,0
10.0478,0
10.0535,0
10.0592,0
10.0649,0
10.0707,0
10.0764,0
10.0821,0
10.0878,0
10.0936,0
10.0993,0
10.105,0
10.1107,0
10.1164,0
10.1222,0
10.1279,163
10.1336,0
10.1393,0
10.1451,0
10.1508,0
10.1565,0
10.1622,0
10.1679,0
10.1737,153
10.1794,0
10.1851,0
10.1908,0
10.1965,0
10.2023,0
10.208,0
10.2137,0
10.2194,0
10.2252,0
10.2309,158
10.2366,0
10.2423,0
10.248,0
10.2538,168
10.2595,0
10.2652,0
10.2709,0
10.2767,0
10.2824,0
10.2881,0
10.2938,0
10.2995,0
10.3053,0
10.311,0
10.3167,0
10.3224,0
10.3282,0
10.3339,0
10.3396,0
10.3453,0
10.351,0
10.3568,0
10.3625,0
10.3682,0
10.3739,0
10.3797,0
10.3854,0
10.3911,0
10.3968,0
10.4025,0
10.4083,0
10.414,0
10.4197,0
10.4254,0
10.4311,0
10.4369,0
10.4426,0
10.4483,0
10.454,0
10.4598,0
10.4655,0
10.4712,0
10.4769,0
10.4826,0
10.4884,0
10.4941,0
10.4998,0
10.5055,0
10.5113,0
10.517,0
10.5227,0
10.5284,160
10.5341,0
10.5399,0
10.5456,0
10.5513,0
10.557,0
10.5628,0
10.5685,0
10.5742,0
10.5799,0
10.5856,0
10.5914,154
10.5971,0
10.6028,0
10.6085,0
10.6143,0
10.62,0
10.6257,0
10.6314,0
10.6371,0
10.6429,0
10.6486,0
10.6543,0
10.66,0
10.6657,0
10.6715,0
10.6772,0
10.6829,0
10.6886,0
10.6944,179
10.7001,0
10.7058,0
10.7115,0
10.7172,0
10.723,0
10.7287,0
10.7344,0
10.7401,0
10.7459,0
10.7516,0
10.7573,0
10.763,0
10.7687,0
10.7745,0
10.7802,0
10.7859,0
10.7916,0
10.7974,0
10.8031,0
10.8088,0
10.8145,0
10.8202,0
10.826,0
10.8317,195
10.8374,0
10.8431,163
10.8489,0
10.8546,0
10.8603,0
10.866,0
10.8717,0
10.8775,172
10.8832,0
10.8889,166
10.8946,0
10.9004,0
10.9061,0
10.9118,0
10.9175,0
10.9232,150
10.929,0
10.9347,165
10.9404,158
10.9461,0
10.9518,0
10.9576,0
10.9633,0
10.969,0
10.9747,0
10.9805,0
10.9862,0
10.9919,0
10.9976,0
11.0033,0
11.0091,0
11.0148,200
11.0205,0
11.0262,0
11.032,0
11.0377,0
11.0434,0
11.0491,0
11.0548,0
11.0606,0
11.0663,0
11.072,0
11.0777,0
11.0835,0
11.0892,167
11.0949,151
11.1006,0
11.1063,0
11.1121,157
11.1178,0
11.1235,0
11.1292,0
11.135,0
11.1407,0
11.1464,0
11.1521,0
11.1578,0
11.1636,0
11.1693,0
11.175,0
11.1807,0
11.1864,0
11.1922,0
11.1979,0
11.2036,164
11.2093,0
11.2151,0
11.2208,0
11.2265,0
11.2322,0
11.2379,0
11.2437,0
11.2494,175
11.2551,0
11.2608,0
11.2666,0
11.2723,162
11.278,0
11.2837,0
11.2894,215
11.2952,0
11.3009,0
11.3066,0
11.3123,0
11.3181,0
11.3238,0
11.3295,0
11.3352,0
11.3409,0
11.3467,0
11.3524,0
11.3581,0
11.3638,0
11.3696,0
11.3753,0
11.381,0
11.3867,0
11.3924,0
11.3982,0
11.4039,0
11.4096,150
11.4153,0
11.421,0
11.4268,0
11.4325,0
11.4382,0
11.4439,0
11.4497,0
11.4554,0
11.4611,0
11.4668,0
11.4725,0
11.4783,0
11.484,173
11.4897,0
11.4954,150
11.5012,0
11.5069,0
11.5126,0
11.5183,0
11.524,0
11.5298,0
11.5355,0
11.5412,166
11.5469,0
11.5527,0
11.5584,0
11.5641,0
11.5698,161
11.5755,0
11.5813,0
11.587,0
11.5927,0
11.5984,0
11.6042,0
11.6099,0
11.6156,0
11.6213,179
11.627,0
11.6328,0
11.6385,0
11.6442,0
11.6499,168
11.6557,0
11.6614,0
11.6671,0
11.6728,0
11.6785,0
11.6843,0
11.69,0
11.6957,153
11.7014,162
11.7071,150
11.7129,210
11.7186,0
11.7243,180
11.73,0
11.7358,0
11.7415,152
11.7472,152
11.7529,0
11.7586,0
11.7644,181
11.7701,263
11.7758,0
11.7815,0
11.7873,0
11.793,0
11.7987,0
11.8044,0
11.8101,170
11.8159,0
11.8216,0
11.8273,164
11.833,0
11.8388,0
11.8445,151
11.8502,0
11.8559,0
11.8616,165
11.8674,0
11.8731,0
11.8788,0
11.8845,154
11.8903,0
11.896,0
11.9017,155
11.9074,155
11.9131,0
11.9189,0
11.9246,0
11.9303,167
11.936,0
11.9417,155
11.9475,197
11.9532,230
11.9589,0
11.9646,189
11.9704,0
11.9761,0
11.9818,0
11.9875,0
11.9932,164
11.999,214
12.0047,0
12.0104,0
12.0161,237
12.0219,0
12.0276,0
12.0333,0
12.039,171
12.0447,0
12.0505,180
12.0562,220
12.0619,0
12.0676,0
12.0734,175
12.0791,226
12.0848,189
12.0905,298
12.0962,192
12.102,161
12.1077,153
12.1134,0
12.1191,203
12.1249,0
12.1306,0
12.1363,0
12.142,0
12.1477,263
12.1535,0
12.1592,0
12.1649,0
12.1706,0
12.1763,151
12.1821,150
12.1878,189
12.1935,0
12.1992,169
12.205,0
12.2107,224
12.2164,0
12.2221,170
12.2278,163
12.2336,156
12.2393,217
12.245,192
12.2507,275
12.2565,210
12.2622,171
12.2679,0
12.2736,159
12.2793,0
12.2851,224
12.2908,170
12.2965,0
12.3022,183
12.308,168
12.3137,285
12.3194,203
12.3251,213
12.3308,155
12.3366,0
12.3423,0
12.348,0
12.3537,199
12.3595,240
12.3652,164
12.3709,199
12.3766,153
12.3823,207
12.3881,0
12.3938,181
12.3995,212
12.4052,0
12.411,201
12.4167,204
12.4224,231
12.4281,224
12.4338,0
12.4396,215
12.4453,244
12.451,252
12.4567,183
12.4624,0
12.4682,191
12.4739,220
12.4796,211
12.4853,181
12.4911,175
12.4968,263
12.5025,213
12.5082,216
12.5139,0
12.5197,231
12.5254,156
12.5311,295
12.5368,301
12.5426,209
12.5483,151
12.554,527
12.5597,174
12.5654,215
12.5712,0
12.5769,377
12.5826,0
12.5883,215
12.5941,236
12.5998,259
12.6055,345
12.6112,251
12.6169,193
12.6227,0
12.6284,205
12.6341,161
12.6398,402
12.6456,268
12.6513,191
12.657,369
12.6627,185
12.6684,241
12.6742,175
12.6799,206
12.6856,270
12.6913,253
12.697,0
12.7028,178
12.7085,182
12.7142,0
12.7199,213
12.7257,234
12.7314,209
12.7371,174
12.7428,210
12.7485,218
12.7543,243
12.76,152
12.7657,253
12.7714,0
12.7772,235
12.7829,163
12.7886,0
12.7943,394
12.8,272
12.8058,228
12.8115,242
12.8172,315
12.8229,248
12.8287,176
12.8344,254
12.8401,189
12.8458,217
12.8515,216
12.8573,318
12.863,187
12.8687,196
12.8744,230
12.8802,245
12.8859,257
12.8916,222
12.8973,326
12.903,473
12.9088,177
12.9145,229
12.9202,329
12.9259,233
12.9316,441
12.9374,249
12.9431,226
12.9488,183
12.9545,271
12.9603,271
12.966,292
12.9717,387
12.9774,204
12.9831,388
12.9889,248
12.9946,178
13.0003,208
13.006,474
13.0118,283
13.0175,356
13.0232,408
13.0289,248
13.0346,252
13.0404,227
13.0461,421
13.0518,314
13.0575,414
13.0633,513
13.069,264
13.0747,219
13.0804,470
13.0861,207
13.0919,281
13.0976,307
13.1033,464
13.109,289
13.1148,220
13.1205,460
13.1262,269
13.1319,271
13.1376,166
13.1434,347
13.1491,225
13.1548,442
13.1605,263
13.1663,241
13.172,559
13.1777,264
13.1834,333
13.1891,401
13.1949,277
13.2006,225
13.2063,319
13.212,520
13.2177,373
13.2235,161
13.2292,335
13.2349,431
13.2406,212
13.2464,431
13.2521,517
13.2578,407
13.2635,315
13.2692,448
13.275,378
13.2807,462
13.2864,316
13.2921,217
13.2979,277
13.3036,314
13.3093,316
13.315,362
13.3207,460
13.3265,442
13.3322,492
13.3379,326
13.3436,434
13.3494,329
13.3551,443
13.3608,455
13.3665,475
13.3722,265
13.378,348
13.3837,508
13.3894,502
13.3951,427
13.4009,402
13.4066,463
13.4123,268
13.418,252
13.4237,391
13.4295,344
13.4352,297
13.4409,236
13.4466,275
13.4523,371
13.4581,281
13.4638,602
13.4695,360
13.4752,427
13.481,339
13.4867,322
13.4924,527
13.4981,286
13.5038,350
13.5096,508
13.5153,595
13.521,200
13.5267,509
13.5325,621
13.5382,662
13.5439,587
13.5496,521
13.5553,412
13.5611,540
13.5668,534
13.5725,312
13.5782,262
13.584,499
13.5897,523
13.5954,573
13.6011,463
13.6068,390
13.6126,512
13.6183,453
13.624,433
13.6297,425
13.6355,449
13.6412,527
13.6469,627
13.6526,717
13.6583,373
13.6641,441
13.6698,464
13.6755,472
13.6812,566
13.687,584
13.6927,651
13.6984,516
13.7041,345
13.7098,557
13.7156,307
13.7213,717
13.727,500
13.7327,680
13.7384,649
13.7442,658
13.7499,615
13.7556,408
13.7613,597
13.7671,637
13.7728,515
13.7785,401
13.7842,586
13.7899,587
13.7957,634
13.8014,565
13.8071,351
13.8128,254
13.8186,648
13.8243,380
13.83,624
13.8357,678
13.8414,820
13.8472,808
13.8529,520
13.8586,805
13.8643,351
13.8701,453
13.8758,671
13.8815,713
13.8872,809
13.8929,668
13.8987,471
13.9044,946
13.9101,557
13.9158,683
13.9216,757
13.9273,583
13.933,551
13.9387,483
13.9444,619
13.9502,814
13.9559,631
13.9616,676
13.9673,547
13.973,661
13.9788,423
13.9845,810
13.9902,856
13.9959,844
14.0017,514
14.0074,611
14.0131,549
14.0188,599
14.0245,832
14.0303,704
14.036,569
14.0417,677
14.0474,750
14.0532,597
14.0589,745
14.0646,707
14.0703,709
14.076,847
14.0818,620
14.0875,746
14.0932,765
14.0989,455
14.1047,705
14.1104,703
14.1161,848
14.1218,639
14.1275,724
14.1333,734
14.139,726
14.1447,1033
14.1504,633
14.1562,782
14.1619,711
14.1676,797
14.1733,551
14.179,809
14.1848,897
14.1905,739
14.1962,809
14.2019,861
14.2076,812
14.2134,1438
14.2191,3664
14.2248,6356
14.2305,7898
14.2363,7523
14.242,4836
14.2477,2822
14.2534,1833
14.2591,1459
14.2649,1330
14.2706,879
14.2763,730
14.282,763
14.2878,738
14.2935,876
14.2992,892
14.3049,827
14.3106,711
14.3164,691
14.3221,1038
14.3278,826
14.3335,832
14.3393,800
14.345,926
14.3507,909
14.3564,917
14.3621,991
14.3679,759
14.3736,834
14.3793,865
14.385,755
14.3908,1107
14.3965,1196
14.4022,838
14.4079,1053
14.4136,1281
14.4194,972
14.4251,769
14.4308,835
14.4365,998
14.4423,954
14.448,836
14.4537,842
14.4594,960
14.4651,774
14.4709,967
14.4766,1059
14.4823,962
14.488,913
14.4937,1249
14.4995,996
14.5052,840
14.5109,806
14.5166,1014
14.5224,818
14.5281,987
14.5338,1049
14.5395,1171
14.5452,912
14.551,1015
14.5567,1335
14.5624,942
14.5681,1048
14.5739,1178
14.5796,983
14.5853,842
14.591,747
14.5967,1085
14.6025,975
14.6082,1047
14.6139,1232
14.6196,1286
14.6254,1099
14.6311,1050
14.6368,1145
14.6425,1000
14.6482,1165
14.654,836
14.6597,1266
14.6654,1003
14.6711,1128
14.6769,1002
14.6826,1593
14.6883,1208
14.694,997
14.6997,1166
14.7055,1058
14.7112,1190
14.7169,938
14.7226,1266
14.7283,1044
14.7341,1396
14.7398,839
14.7455,1109
14.7512,1266
14.757,1188
14.7627,894
14.7684,936
14.7741,1063
14.7798,1216
14.7856,1473
14.7913,1183
14.797,1443
14.8027,1342
14.8085,1321
14.8142,1580
14.8199,1093
14.8256,1660
14.8313,980
14.8371,1385
14.8428,987
14.8485,1192
14.8542,1534
14.86,1438
14.8657,1178
14.8714,1383
14.8771,1293
14.8828,1571
14.8886,1439
14.8943,1184
14.9,1407
14.9057,1601
14.9115,1435
14.9172,1454
14.9229,1421
14.9286,1591
14.9343,1655
14.9401,1254
14.9458,1403
14.9515,1635
14.9572,1258
14.9629,1657
14.9687,1680
14.9744,1407
14.9801,1250
14.9858,1359
14.9916,1253
14.9973,1657
15.003,1750
15.0087,1529
15.0144,1704
15.0202,1366
15.0259,1660
15.0316,1765
15.0373,1901
15.0431,1476
15.0488,1596
15.0545,1378
15.0602,1751
15.0659,1837
15.0717,1201
15.0774,1560
15.0831,1186
15.0888,1620
15.0946,1656
15.1003,1951
15.106,1832
15.1117,1459
15.1174,1564
15.1232,1736
15.1289,1714
15.1346,1995
15.1403,1589
15.1461,1716
15.1518,1911
15.1575,2325
15.1632,1506
15.1689,2089
15.1747,1554
15.1804,1509
15.1861,2268
15.1918,1554
15.1976,1750
15.2033,1804
15.209,1937
15.2147,1862
15.2204,1950
15.2262,1915
15.2319,1399
15.2376,2001
15.2433,2223
15.249,1779
15.2548,1876
15.2605,1609
15.2662,1695
15.2719,1838
15.2777,1805
15.2834,1943
15.2891,1875
15.2948,2062
15.3005,1831
15.3063,1942
15.312,2064
15.3177,2007
15.3234,1902
15.3292,2078
15.3349,2261
15.3406,2041
15.3463,2166
15.352,2341
15.3578,2341
15.3635,2042
15.3692,1639
15.3749,2249
15.3807,2142
15.3864,1890
15.3921,2231
15.3978,2181
15.4035,2010
15.4093,2747
15.415,2073
15.4207,2552
15.4264,2767
15.4322,1994
15.4379,2237
15.4436,2589
15.4493,2286
15.455,2172
15.4608,2296
15.4665,2702
15.4722,2978
15.4779,2218
15.4836,2525
15.4894,2734
15.4951,2094
15.5008,2579
15.5065,2051
15.5123,2222
15.518,2401
15.5237,1850
15.5294,1991
15.5351,2283
15.5409,2481
15.5466,2517
15.5523,2714
15.558,2366
15.5638,2676
15.5695,2236
15.5752,2136
15.5809,2517
15.5866,2461
15.5924,2788
15.5981,2508
15.6038,2446
15.6095,2403
15.6153,2928
15.621,2733
15.6267,2382
15.6324,2716
15.6381,2694
15.6439,2589
15.6496,2619
15.6553,2530
15.661,3328
15.6668,2728
15.6725,2785
15.6782,2729
15.6839,3251
15.6896,2906
15.6954,2726
15.7011,2724
15.7068,2693
15.7125,2724
15.7182,3618
15.724,2285
15.7297,3047
15.7354,2556
15.7411,3248
15.7469,3356
15.7526,3105
15.7583,3148
15.764,3258
15.7697,2975
15.7755,2792
15.7812,3300
15.7869,2798
15.7926,3095
15.7984,3444
15.8041,3150
15.8098,2595
15.8155,3112
15.8212,3213
15.827,2971
15.8327,3142
15.8384,3194
15.8441,3298
15.8499,3121
15.8556,2649
15.8613,2721
15.867,3334
15.8727,3080
15.8785,3074
15.8842,3367
15.8899,3231
15.8956,2867
15.9014,3156
15.9071,3480
15.9128,2791
15.9185,3357
15.9242,3501
15.93,3132
15.9357,3285
15.9414,3417
15.9471,3546
15.9529,3602
15.9586,3778
15.9643,3709
15.97,3671
15.9757,3701
15.9815,3475
15.9872,4123
15.9929,3884
15.9986,3159
16.0043,3429
16.0101,3637
16.0158,3194
16.0215,3771
16.0272,3357
16.033,4142
16.0387,4007
16.0444,3688
16.0501,3937
16.0558,3558
16.0616,4046
16.0673,3479
16.073,4017
16.0787,3864
16.0845,4332
16.0902,3799
16.0959,3745
16.1016,3171
16.1073,4068
16.1131,3838
16.1188,4216
16.1245,4318
16.1302,4072
16.136,3774
16.1417,3958
16.1474,4184
16.1531,4264
16.1588,3384
16.1645,4296
16.1703,4025
16.176,4402
16.1817,4005
16.1874,4554
16.1932,3887
16.1989,4539
16.2046,4322
16.2103,4317
16.216,4023
16.2218,4325
16.2275,4646
16.2332,4013
16.2389,4750
16.2447,4477
16.2504,3795
16.2561,4390
16.2618,4360
16.2676,3752
16.2733,4645
16.279,4384
16.2847,5203
16.2904,4521
16.2962,4407
16.3019,4854
16.3076,4575
16.3133,4492
16.3191,4604
16.3248,4931
16.3305,4823
16.3362,3981
16.3419,4841
16.3477,4838
16.3534,5067
16.3591,4538
16.3648,4291
16.3706,4845
16.3763,4715
16.382,4936
16.3877,5269
16.3934,4942
16.3991,4955
16.4049,5282
16.4106,4800
16.4163,4844
16.422,4523
16.4278,4790
16.4335,4749
16.4392,5300
16.4449,4936
16.4507,4836
16.4564,4913
16.4621,5320
16.4678,5176
16.4735,5370
16.4793,4976
16.485,5736
16.4907,5211
16.4964,5159
16.5022,5710
16.5079,5366
16.5136,5509
16.5193,4724
16.525,5508
16.5308,5472
16.5365,5378
16.5422,5102
16.5479,5111
16.5537,5591
16.5594,5292
16.5651,5319
16.5708,5808
16.5765,5083
16.5823,5118
16.588,5168
16.5937,5138
16.5994,5466
16.6051,6322
16.6109,5620
16.6166,5872
16.6223,5765
16.628,5589
16.6337,5947
16.6395,5604
16.6452,6017
16.6509,5309
16.6566,6164
16.6624,6157
16.6681,6707
16.6738,5747
16.6795,6035
16.6853,5510
16.691,5950
16.6967,6029
16.7024,6019
16.7082,6744
16.7139,6717
16.7196,6340
16.7253,5550
16.731,6098
16.7368,6609
16.7425,6167
16.7482,6821
16.7539,6287
16.7596,6358
16.7654,6306
16.7711,6471
16.7768,6731
16.7825,6419
16.7883,6474
16.794,6656
16.7997,6962
16.8054,7339
16.8111,5915
16.8169,6183
16.8226,6513
16.8283,7007
16.834,7117
16.8397,6680
16.8455,6588
16.8512,7402
16.8569,6534
16.8626,7831
16.8684,6933
16.8741,6333
16.8798,6780
16.8855,7145
16.8912,6941
16.897,7471
16.9027,7226
16.9084,7190
16.9141,6841
16.9199,7028
16.9256,6803
16.9313,7556
16.937,6388
16.9428,7023
16.9485,7329
16.9542,6906
16.9599,7888
16.9656,6831
16.9714,7493
16.9771,8045
16.9828,6967
16.9885,7454
16.9942,7503
17,7980
17.0057,7753
17.0114,7611
17.0171,7565
17.0228,7615
17.0286,6913
17.0343,7276
17.04,7604
17.0457,7713
17.0515,7797
17.0572,7464
17.0629,7152
17.0686,8176
17.0743,8324
17.0801,8038
17.0858,8601
17.0915,7945
17.0972,7915
17.103,7825
17.1087,7300
17.1144,8478
17.1201,8379
17.1259,7946
17.1316,8029
17.1373,8085
17.143,8050
17.1487,8190
17.1545,8412
17.1602,9157
17.1659,8338
17.1716,8962
17.1774,8206
17.1831,8589
17.1888,8714
17.1945,8830
17.2002,7616
17.206,8433
17.2117,8776
17.2174,8653
17.2231,8491
17.2289,8707
17.2346,9170
17.2403,9474
17.246,8882
17.2517,8983
17.2574,8614
17.2632,9110
17.2689,8562
17.2746,9296
17.2803,9887
17.2861,9094
17.2918,8819
17.2975,8974
17.3032,9923
17.3089,9367
17.3147,9128
17.3204,9285
17.3261,10017
17.3318,9447
17.3376,9298
17.3433,9662
17.349,9494
17.3547,9419
17.3605,9504
17.3662,9426
17.3719,9259
17.3776,10248
17.3833,10132
17.3891,9786
17.3948,9882
17.4005,10599
17.4062,9887
17.412,10474
17.4177,10149
17.4234,10277
17.4291,9989
17.4348,9819
17.4406,9856
17.4463,10299
17.452,10415
17.4577,9948
17.4635,10664
17.4692,10138
17.4749,10583
17.4806,9873
17.4863,10643
17.4921,10585
17.4978,9609
17.5035,10638
17.5092,10362
17.5149,10642
17.5207,10696
17.5264,10784
17.5321,11349
17.5378,11268
17.5436,10701
17.5493,10947
17.555,10717
17.5607,11026
17.5664,11292
17.5722,10763
17.5779,10411
17.5836,11099
17.5893,10906
17.5951,10699
17.6008,10823
17.6065,10297
17.6122,12338
17.6179,11458
17.6237,10936
17.6294,11539
17.6351,11051
17.6408,11870
17.6466,11954
17.6523,11067
17.658,11977
17.6637,11759
17.6694,11194
17.6752,11383
17.6809,11732
17.6866,11367
17.6923,11948
17.6981,11439
17.7038,11846
17.7095,11575
17.7152,11424
17.7209,13094
17.7266,12328
17.7324,12275
17.7381,11068
17.7438,12794
17.7495,12462
17.7553,12831
17.761,12421
17.7667,11969
17.7724,12393
17.7782,12299
17.7839,12258
17.7896,13096
17.7953,12431
17.801,12572
17.8068,12609
17.8125,13052
17.8182,12425
17.8239,13109
17.8297,12794
17.8354,12460
17.8411,12930
17.8468,12098
17.8525,13431
17.8583,13444
17.864,12266
17.8697,13311
17.8754,13206
17.8812,13603
17.8869,12521
17.8926,13037
17.8983,13201
17.904,13677
17.9098,13793
17.9155,13210
17.9212,13092
17.9269,13665
17.9327,13175
17.9384,12796
17.9441,12945
17.9498,13812
17.9555,13239
17.9613,13166
17.967,13323
17.9727,13172
17.9784,13244
17.9842,13972
17.9899,14056
17.9956,14581
18.0013,14164
18.007,14076
18.0128,14000
18.0185,14207
18.0242,14769
18.0299,14347
18.0356,14620
18.0414,14766
18.0471,14349
18.0528,14772
18.0585,15081
18.0643,14842
18.07,14832
18.0757,14029
18.0814,14450
18.0871,15334
18.0929,14786
18.0986,15027
18.1043,14282
18.11,14727
18.1158,14839
18.1215,14900
18.1272,15264
18.1329,14525
18.1386,14968
18.1443,15073
18.1501,15789
18.1558,14987
18.1615,15340
18.1672,15497
18.173,14674
18.1787,14946
18.1844,16502
18.1901,15297
18.1959,15855
18.2016,16315
18.2073,15563
18.213,16302
18.2188,16158
18.2245,16002
18.2302,16271
18.2359,16416
18.2416,14862
18.2474,15340
18.2531,15556
18.2588,16357
18.2645,16256
18.2702,15888
18.276,15351
18.2817,16683
18.2874,17269
18.2931,15935
18.2989,15794
18.3046,15262
18.3103,16129
18.316,16436
18.3217,16774
18.3275,16709
18.3332,16983
18.3389,16246
18.3446,17050
18.3504,16237
18.3561,15807
18.3618,16846
18.3675,17244
18.3732,16603
18.379,16224
18.3847,16833
18.3904,17638
18.3961,16614
18.4019,15460
18.4076,16914
18.4133,16947
18.419,17498
18.4247,17275
18.4305,17608
18.4362,16358
18.4419,17604
18.4476,17398
18.4534,17672
18.4591,17919
18.4648,17875
18.4705,17339
18.4762,18854
18.482,18196
18.4877,18087
18.4934,17505
18.4991,18798
18.5048,17833
18.5106,17425
18.5163,17335
18.522,16901
18.5277,18131
18.5335,17712
18.5392,18103
18.5449,18389
18.5506,18462
18.5563,18256
18.5621,18089
18.5678,18536
18.5735,18630
18.5792,18481
18.5849,18456
18.5907,18056
18.5964,18442
18.6021,17868
18.6078,18970
18.6136,18901
18.6193,18973
18.625,18947
18.6307,18228
18.6365,18810
18.6422,19248
18.6479,18857
18.6536,18427
18.6593,19519
18.6651,19040
18.6708,19798
18.6765,20257
18.6822,19243
18.688,19077
18.6937,18783
18.6994,19792
18.7051,18442
18.7108,19889
18.7166,18704
18.7223,19629
18.728,20290
18.7337,18591
18.7395,20320
18.7452,19079
18.7509,19023
18.7566,20932
18.7623,18665
18.7681,20145
18.7738,19586
18.7795,18978
18.7852,20273
18.7909,19597
18.7967,19380
18.8024,20330
18.8081,20493
18.8138,19064
18.8196,19938
18.8253,20200
18.831,19641
18.8367,20645
18.8424,20976
18.8482,20131
18.8539,19555
18.8596,19831
18.8653,20197
18.8711,19961
18.8768,20660
18.8825,20688
18.8882,20532
18.8939,20417
18.8997,20214
18.9054,20798
18.9111,20129
18.9168,20811
18.9226,20599
18.9283,21801
18.934,20321
18.9397,20057
18.9454,20931
18.9512,20875
18.9569,21640
18.9626,20001
18.9683,22035
18.9741,20891
18.9798,21358
18.9855,21030
18.9912,20208
18.9969,20707
19.0026,21105
19.0084,20546
19.0141,21651
19.0198,23117
19.0255,21266
19.0313,21301
19.037,20894
19.0427,21584
19.0484,21982
19.0542,21320
19.0599,22067
19.0656,21989
19.0713,21481
19.077,21391
19.0828,21691
19.0885,21117
19.0942,21789
19.0999,22301
19.1057,20909
19.1114,21952
19.1171,21476
19.1228,22828
19.1285,22016
19.1343,21362
19.14,22685
19.1457,21240
19.1514,21905
19.1572,21937
19.1629,21864
19.1686,22010
19.1743,22352
19.18,20756
19.1858,22723
19.1915,21710
19.1972,21437
19.2029,22551
19.2087,21205
19.2144,20931
19.2201,22693
19.2258,22199
19.2315,22847
19.2373,22566
19.243,21972
19.2487,22534
19.2544,21616
19.2601,22749
19.2659,21696
19.2716,22645
19.2773,22567
19.283,21567
19.2888,23175
19.2945,22722
19.3002,22388
19.3059,22675
19.3116,22072
19.3174,21186
19.3231,22612
19.3288,22814
19.3345,22438
19.3403,22792
19.346,22319
19.3517,21657
19.3574,22051
19.3631,22220
19.3689,22896
19.3746,21909
19.3803,21770
19.386,21423
19.3918,22758
19.3975,22348
19.4032,22562
19.4089,22302
19.4146,22370
19.4204,22275
19.4261,22605
19.4318,22702
19.4375,22825
19.4433,21331
19.449,22803
19.4547,21965
19.4604,22913
19.4661,20848
19.4719,21486
19.4776,22408
19.4833,22350
19.489,21120
19.4948,21744
19.5005,22224
19.5062,21742
19.5119,22176
19.5176,21530
19.5234,22330
19.5291,22267
19.5348,22536
19.5405,22841
19.5462,21523
19.552,22388
19.5577,23021
19.5634,22548
19.5691,23192
19.5749,23001
19.5806,22087
19.5863,21987
19.592,21282
19.5977,22312
19.6035,21450
19.6092,22943
19.6149,22317
19.6206,22545
19.6264,22582
19.6321,22142
19.6378,22147
19.6435,22520
19.6492,22440
19.6549,21828
19.6607,22917
19.6664,22662
19.6721,22694
19.6778,21778
19.6836,22849
19.6893,22506
19.695,21876
19.7007,23025
19.7065,23444
19.7122,22380
19.7179,22704
19.7236,22088
19.7294,23422
19.7351,22560
19.7408,21583
19.7465,21769
19.7522,22852
19.758,23110
19.7637,22197
19.7694,21323
19.7751,22525
19.7808,21809
19.7866,22246
19.7923,22964
19.798,21317
19.8037,22130
19.8095,22118
19.8152,22456
19.8209,22305
19.8266,22916
19.8323,21667
19.8381,22548
19.8438,22132
19.8495,21300
19.8552,22553
19.861,22280
19.8667,22233
19.8724,22130
19.8781,23059
19.8838,22863
19.8896,21409
19.8953,22238
19.901,22281
19.9067,23020
19.9125,22576
19.9182,22684
19.9239,23311
19.9296,23814
19.9353,22553
19.9411,21749
19.9468,21485
19.9525,23029
19.9582,23439
19.964,23500
19.9697,22467
19.9754,22649
19.9811,22267
19.9868,23147
19.9926,23146
19.9983,22188
20.004,23200
20.0097,23208
20.0154,22530
20.0212,22639
20.0269,22179
20.0326,22173
20.0383,22287
20.0441,22835
20.0498,22341
20.0555,22020
20.0612,21513
20.0669,22542
20.0727,22728
20.0784,22692
20.0841,22555
20.0898,22907
20.0955,22408
20.1013,21584
20.107,22585
20.1127,21046
20.1184,23393
20.1242,21609
20.1299,22032
20.1356,22766
20.1413,21510
20.1471,22816
20.1528,22023
20.1585,23101
20.1642,22240
20.1699,23813
20.1757,22343
20.1814,23016
20.1871,22609
20.1928,22689
20.1986,22758
20.2043,21244
20.21,23597
20.2157,21963
20.2214,22449
20.2272,22370
20.2329,21937
20.2386,22093
20.2443,22017
20.2501,23172
20.2558,22694
20.2615,23152
20.2672,21865
20.2729,22151
20.2787,21983
20.2844,22356
20.2901,21572
20.2958,23178
20.3015,22042
20.3073,22776
20.313,21916
20.3187,22695
20.3244,22788
20.3302,22441
20.3359,22754
20.3416,23217
20.3473,22800
20.353,21957
20.3588,21790
20.3645,22159
20.3702,22731
20.3759,22644
20.3817,23239
20.3874,22164
20.3931,22786
20.3988,23009
20.4045,23337
20.4103,22910
20.416,22506
20.4217,23190
20.4274,22394
20.4332,21681
20.4389,21772
20.4446,20754
20.4503,22578
20.456,22101
20.4618,21870
20.4675,22360
20.4732,22558
20.4789,21295
20.4847,23380
20.4904,22788
20.4961,21588
20.5018,22467
20.5075,21701
20.5132,23087
20.519,21559
20.5247,23165
20.5304,23189
20.5361,23518
20.5419,22526
20.5476,21119
20.5533,22308
20.559,22184
20.5648,22358
20.5705,22429
20.5762,22195
20.5819,23666
20.5876,21881
20.5934,22437
20.5991,22216
20.6048,22429
20.6105,23020
20.6163,22638
20.622,22561
20.6277,23315
20.6334,22421
20.6391,23174
20.6449,23025
20.6506,23073
20.6563,22241
20.662,22339
20.6678,21947
20.6735,24497
20.6792,23249
20.6849,22162
20.6906,22706
20.6964,22314
20.7021,22584
20.7078,22124
20.7135,23231
20.7193,22245
20.725,22704
20.7307,22368
20.7364,22834
20.7421,22242
20.7479,22478
20.7536,22691
20.7593,22657
20.765,23241
20.7708,22267
20.7765,22075
20.7822,23071
20.7879,22324
20.7936,22546
20.7994,23339
20.8051,24222
20.8108,21832
20.8165,22828
20.8222,21236
20.828,22690
20.8337,21814
20.8394,22675
20.8451,22452
20.8509,22249
20.8566,21740
20.8623,22545
20.868,21090
20.8737,21892
20.8795,23006
20.8852,22289
20.8909,21755
20.8966,21464
20.9024,22951
20.9081,22218
20.9138,23356
20.9195,22318
20.9252,22353
20.9309,22652
20.9367,22583
20.9424,22654
20.9481,20963
20.9539,22838
20.9596,22455
20.9653,22601
20.971,21598
20.9767,21527
20.9825,21644
20.9882,22702
20.9939,22805
20.9996,22842
21.0054,21665
21.0111,23454
21.0168,22815
21.0225,21790
21.0282,22809
21.034,21681
21.0397,22339
21.0454,22107
21.0511,21589
21.0568,21766
21.0626,22760
21.0683,22721
21.074,22519
21.0797,22437
21.0855,21903
21.0912,21320
21.0969,22071
21.1026,21942
21.1083,22511
21.1141,22281
21.1198,22686
21.1255,22763
21.1312,22936
21.137,23086
21.1427,23017
21.1484,22288
21.1541,21132
21.1598,23037
21.1656,22230
21.1713,22290
21.177,21959
21.1827,22836
21.1885,22300
21.1942,22670
21.1999,21750
21.2056,23245
21.2113,22236
21.2171,22961
21.2228,22377
21.2285,22302
21.2342,22653
21.24,21716
21.2457,23350
21.2514,22249
21.2571,22797
21.2628,22568
21.2686,23414
21.2743,23491
21.28,22558
21.2857,22423
21.2914,23569
21.2972,21333
21.3029,22562
21.3086,22072
21.3143,22414
21.3201,22039
21.3258,22575
21.3315,22714
21.3372,22359
21.3429,22518
21.3487,22402
21.3544,22957
21.3601,22844
21.3658,22216
21.3716,21456
21.3773,23092
21.383,22752
21.3887,23101
21.3944,23103
21.4002,22531
21.4059,22468
21.4116,22324
21.4173,22724
21.4231,22439
21.4288,22570
21.4345,23742
21.4402,21645
21.4459,22108
21.4517,22964
21.4574,23629
21.4631,23315
21.4688,22091
21.4746,22701
21.4803,22443
21.486,21802
21.4917,23069
21.4974,23128
21.5032,22016
21.5089,21967
21.5146,21978
21.5203,21531
21.5261,22555
21.5318,23379
21.5375,22773
21.5432,23238
21.5489,22115
21.5547,21941
21.5604,22325
21.5661,22061
21.5718,22668
21.5775,22900
21.5833,22647
21.589,22762
21.5947,22126
21.6004,22498
21.6062,24001
21.6119,22336
21.6176,21771
21.6233,23727
21.629,22157
21.6348,22580
21.6405,22617
21.6462,22783
21.6519,22139
21.6577,23162
21.6634,22643
21.6691,22224
21.6748,22414
21.6805,23239
21.6863,23161
21.692,22252
21.6977,23134
21.7034,22213
21.7092,23562
21.7149,22872
21.7206,23216
21.7263,21460
21.732,22864
21.7378,22335
21.7435,22822
21.7492,22814
21.7549,22548
21.7607,23693
21.7664,22576
21.7721,22844
21.7778,23647
21.7835,23457
21.7893,22716
21.795,22090
21.8007,22157
21.8064,22710
21.8121,22934
21.8179,23268
21.8236,22761
21.8293,21598
21.835,23116
21.8408,22546
21.8465,22128
21.8522,23114
21.8579,22218
21.8636,22706
21.8694,22965
21.8751,21616
21.8808,23169
21.8865,21940
21.8923,22984
21.898,22310
21.9037,22904
21.9094,22948
21.9151,23814
21.9209,22783
21.9266,21808
21.9323,22583
21.938,22338
21.9438,23952
21.9495,23955
21.9552,23262
21.9609,21797
21.9666,23337
21.9724,22720
21.9781,23596
21.9838,22965
21.9895,22180
21.9953,23557
22.001,22509
22.0067,22587
22.0124,23243
22.0181,22496
22.0238,22477
22.0296,22479
22.0353,23312
22.041,23776
22.0467,22851
22.0525,22968
22.0582,23523
22.0639,22961
22.0696,23054
22.0754,21833
22.0811,22783
22.0868,23157
22.0925,23541
22.0982,22906
22.104,22212
22.1097,22493
22.1154,23160
22.1211,22666
22.1269,22002
22.1326,24446
22.1383,22311
22.144,23313
22.1497,22661
22.1555,22928
22.1612,22913
22.1669,22531
22.1726,22994
22.1784,23204
22.1841,22423
22.1898,21805
22.1955,22694
22.2012,22512
22.207,23863
22.2127,22167
22.2184,23413
22.2241,23031
22.2299,23424
22.2356,22210
22.2413,23164
22.247,22555
22.2527,23910
22.2585,22220
22.2642,21312
22.2699,22673
22.2756,22376
22.2814,23297
22.2871,22945
22.2928,22731
22.2985,23094
22.3042,22891
22.31,23184
22.3157,22859
22.3214,23083
22.3271,24083
22.3328,21737
22.3386,22049
22.3443,24044
22.35,22531
22.3557,23868
22.3615,22501
22.3672,22134
22.3729,21921
22.3786,22696
22.3843,23217
22.3901,23065
22.3958,21897
22.4015,22473
22.4072,22314
22.413,22661
22.4187,21783
22.4244,23794
22.4301,22941
22.4358,22639
22.4415,23537
22.4473,22127
22.453,23941
22.4587,23128
22.4644,21876
22.4702,23593
22.4759,21955
22.4816,23840
22.4873,23207
22.4931,22789
