C:\MSDCHEM\1\DATA\BECKY\20180124 2 PHASE EXTR 2\1-23-18 MS 2C.d 24 Jan 18   8:36 pm
Start of data points
3.09257,11061
3.09828,11018
3.10402,9204
3.10973,10172
3.11545,9060
3.12118,9565
3.1269,10037
3.13262,10646
3.13835,9980
3.14407,9591
3.14978,10142
3.15552,10468
3.16123,9756
3.16695,9327
3.17268,9338
3.1784,9729
3.18412,9444
3.18985,9001
3.19557,9504
3.20128,9834
3.207,9382
3.21273,10119
3.21845,9423
3.22417,9554
3.2299,9911
3.23562,9421
3.24133,8275
3.24707,8968
3.25278,8728
3.2585,8585
3.26423,9689
3.26995,8541
3.27567,8259
3.2814,8978
3.28712,7624
3.29283,7505
3.29857,6735
3.30428,7656
3.31,6777
3.31573,7090
3.32145,7256
3.32717,7545
3.3329,6837
3.33862,5538
3.34433,7219
3.35005,6156
3.35578,6492
3.3615,6274
3.36722,6057
3.37295,6514
3.37867,6470
3.38438,6129
3.39012,5399
3.39583,6158
3.40155,6070
3.40728,5497
3.413,6627
3.41872,5157
3.42445,5723
3.43017,3945
3.43588,5603
3.44162,5084
3.44733,5107
3.45305,5649
3.45878,4710
3.4645,5625
3.47022,5286
3.47593,5593
3.48167,5390
3.48738,5199
3.4931,5854
3.49883,4455
3.50455,3327
3.51027,5903
3.516,4982
3.52172,4319
3.52743,4342
3.53317,4720
3.53888,4176
3.5446,3116
3.55033,3497
3.55605,4218
3.56177,3496
3.5675,4900
3.57322,4250
3.57893,3847
3.58467,3787
3.59038,4030
3.5961,4743
3.60182,4351
3.60755,4693
3.61327,3715
3.61898,4009
3.62472,3848
3.63043,3876
3.63615,4432
3.64188,3097
3.6476,4293
3.65332,3242
3.65905,3868
3.66477,3765
3.67048,3273
3.67622,3738
3.68193,2784
3.68765,3475
3.69338,4142
3.6991,4084
3.70482,3367
3.71055,3076
3.71627,3109
3.72198,3550
3.7277,3726
3.73343,3806
3.73915,3238
3.74487,3364
3.7506,3660
3.75632,3474
3.76203,3835
3.76777,3328
3.77348,3207
3.7792,2886
3.78493,2709
3.79065,3104
3.79637,3511
3.8021,3830
3.80782,3330
3.81353,3306
3.81927,2374
3.82498,3508
3.8307,3521
3.83643,2810
3.84215,2986
3.84787,2496
3.85358,2876
3.85932,2627
3.86503,3114
3.87075,2857
3.87648,2075
3.8822,3216
3.88792,2674
3.89365,2750
3.89937,2512
3.90508,3293
3.91082,2695
3.91653,2590
3.92225,3157
3.92798,3143
3.9337,2919
3.93942,2367
3.94515,3707
3.95087,3385
3.95658,2548
3.96232,2767
3.96803,2734
3.97375,2975
3.97947,2890
3.9852,2629
3.99092,3408
3.99663,3120
4.00237,2827
4.00808,2069
4.0138,2861
4.01953,2267
4.02525,2496
4.03097,2423
4.0367,3059
4.04242,2780
4.04813,3227
4.05387,3260
4.05958,2818
4.0653,3525
4.07103,2168
4.07675,3068
4.08247,2347
4.0882,2948
4.09392,3598
4.09963,3620
4.10535,2714
4.11108,2177
4.1168,2917
4.12252,2594
4.12825,2564
4.13397,3088
4.13968,2157
4.14542,2176
4.15113,2676
4.15685,2849
4.16258,3009
4.1683,2518
4.17402,3078
4.17975,1993
4.18547,2504
4.19118,2476
4.19692,2639
4.20263,1997
4.20835,2855
4.21408,2302
4.2198,2097
4.22552,1630
4.23123,2389
4.23697,1736
4.24268,2366
4.2484,2224
4.25413,1852
4.25985,1728
4.26557,2276
4.2713,1519
4.27702,2205
4.28273,1715
4.28847,1750
4.29418,2318
4.2999,2269
4.30563,1853
4.31135,1990
4.31707,1512
4.3228,2509
4.32852,1866
4.33423,2024
4.33997,1233
4.34568,1774
4.3514,1804
4.35712,1931
4.36285,2153
4.36857,2015
4.37428,2362
4.38002,2595
4.38573,1988
4.39145,1809
4.39718,2131
4.4029,2131
4.40862,1676
4.41435,2052
4.42007,2598
4.42578,2261
4.43152,2914
4.43723,2315
4.44295,1886
4.44868,1949
4.4544,1859
4.46012,2187
4.46585,1964
4.47157,1654
4.47728,1926
4.483,2136
4.48873,1997
4.49445,1982
4.50017,1973
4.5059,2245
4.51162,1720
4.51733,2081
4.52307,1826
4.52878,1759
4.5345,2386
4.54023,2097
4.54595,1328
4.55167,2066
4.5574,1698
4.56312,1956
4.56883,2407
4.57457,2352
4.58028,1689
4.586,2054
4.59173,1902
4.59745,1684
4.60317,1403
4.60888,1734
4.61462,1348
4.62033,1288
4.62605,1179
4.63178,1838
4.6375,1747
4.64322,1264
4.64895,1703
4.65467,1411
4.66038,1900
4.66612,1691
4.67183,1167
4.67755,751
4.68328,1949
4.689,1378
4.69472,1463
4.70045,1282
4.70617,1774
4.71188,1208
4.71762,1030
4.72333,1450
4.72905,1691
4.73477,1914
4.7405,2850
4.74622,1633
4.75193,1537
4.75767,1742
4.76338,1214
4.7691,1614
4.77483,1069
4.78055,1787
4.78627,1582
4.792,1125
4.79772,1210
4.80343,1357
4.80917,1243
4.81488,1228
4.8206,1567
4.82633,2031
4.83205,1985
4.83777,1312
4.8435,1274
4.84922,1212
4.85493,1123
4.86065,903
4.86638,1516
4.8721,2454
4.87782,2083
4.88355,1515
4.88927,1263
4.89498,2176
4.90072,1971
4.90643,888
4.91215,1505
4.91788,1651
4.9236,1292
4.92932,1027
4.93505,731
4.94077,1429
4.94648,1050
4.95222,1641
4.95793,1478
4.96365,1585
4.96938,1275
4.9751,1435
4.98082,1182
4.98653,1796
4.99227,1405
4.99798,1290
5.0037,1340
5.00943,986
5.01515,904
5.02087,1405
5.0266,1541
5.03232,2545
5.03803,4042
5.04377,8281
5.04948,14064
5.0552,15322
5.06093,13677
5.06665,14232
5.07237,19918
5.0781,29979
5.08382,45635
5.08953,53217
5.09527,60690
5.10098,60153
5.1067,61938
5.11242,57993
5.11815,49343
5.12387,49177
5.12958,47064
5.13532,45300
5.14103,41299
5.14675,37183
5.15248,35903
5.1582,33263
5.16392,30981
5.16965,28488
5.17537,26435
5.18108,24708
5.18682,24612
5.19253,21849
5.19825,20731
5.20398,18907
5.2097,17574
5.21542,17075
5.22115,16872
5.22687,14825
5.23258,13765
5.2383,12546
5.24403,11636
5.24975,11208
5.25547,11156
5.2612,10757
5.26692,10080
5.27263,10108
5.27837,8183
5.28408,7219
5.2898,8069
5.29553,6978
5.30125,7232
5.30697,5787
5.3127,6999
5.31842,6339
5.32413,6175
5.32987,5110
5.33558,5110
5.3413,5079
5.34703,4824
5.35275,4652
5.35847,4798
5.36418,3026
5.36992,3436
5.37563,3813
5.38135,3884
5.38708,2961
5.3928,3173
5.39852,3945
5.40425,2803
5.40997,2639
5.41568,2443
5.42142,2635
5.42713,2941
5.43285,2805
5.43858,2730
5.4443,2443
5.45002,2243
5.45575,1108
5.46147,964
5.46718,1676
5.47292,2225
5.47863,1490
5.48435,2026
5.49007,1765
5.4958,1001
5.50152,1126
5.50723,1635
5.51297,1420
5.51868,1214
5.5244,1069
5.53013,1104
5.53585,941
5.54157,664
5.5473,1006
5.55302,963
5.55873,1494
5.56447,951
5.57018,758
5.5759,1055
5.58163,1001
5.58735,416
5.59307,602
5.5988,1169
5.60452,1288
5.61023,1218
5.61595,1124
5.62168,1125
5.6274,777
5.63312,520
5.63885,980
5.64457,650
5.65028,1042
5.65602,566
5.66173,1256
5.66745,858
5.67318,562
5.6789,845
5.68462,1049
5.69035,775
5.69607,1209
5.70178,938
5.70752,890
5.71323,958
5.71895,1165
5.72468,1498
5.7304,752
5.73612,296
5.74183,542
5.74757,791
5.75328,741
5.759,993
5.76473,946
5.77045,941
5.77617,604
5.7819,979
5.78762,616
5.79333,1063
5.79907,624
5.80478,871
5.8105,909
5.81623,742
5.82195,511
5.82767,845
5.8334,707
5.83912,734
5.84483,680
5.85057,669
5.85628,248
5.862,563
5.86772,912
5.87345,681
5.87917,490
5.88488,910
5.89062,915
5.89633,703
5.90205,857
5.90778,422
5.9135,953
5.91922,658
5.92495,857
5.93067,761
5.93638,601
5.94212,800
5.94783,939
5.95355,749
5.95928,279
5.965,756
5.97072,1060
5.97645,819
5.98217,716
5.98788,318
5.9936,1079
5.99933,771
6.00505,578
6.01077,588
6.0165,754
6.02222,770
6.02793,851
6.03367,721
6.03938,710
6.0451,911
6.05083,782
6.05655,788
6.06227,560
6.068,734
6.07372,1123
6.07943,631
6.08517,1211
6.09088,871
6.0966,1146
6.10233,610
6.10805,753
6.11377,895
6.11948,1317
6.12522,784
6.13093,984
6.13665,612
6.14238,986
6.1481,834
6.15382,879
6.15955,926
6.16527,809
6.17098,505
6.17672,506
6.18243,726
6.18815,757
6.19388,828
6.1996,696
6.20532,574
6.21105,735
6.21677,1075
6.22248,1369
6.22822,323
6.23393,413
6.23965,885
6.24537,487
6.2511,701
6.25682,461
6.26253,838
6.26827,268
6.27398,435
6.2797,292
6.28543,401
6.29115,743
6.29687,374
6.3026,552
6.30832,535
6.31403,641
6.31977,416
6.32548,463
6.3312,389
6.33693,555
6.34265,601
6.34837,727
6.3541,443
6.35982,697
6.36553,983
6.37125,477
6.37698,680
6.3827,1289
6.38842,724
6.39415,643
6.39987,672
6.40558,585
6.41132,425
6.41703,699
6.42275,1006
6.42848,1145
6.4342,719
6.43992,779
6.44565,384
6.45137,473
6.45708,568
6.46282,394
6.46853,583
6.47425,821
6.47998,1024
6.4857,917
6.49142,673
6.49713,959
6.50287,556
6.50858,740
6.5143,525
6.52003,550
6.52575,268
6.53147,592
6.5372,647
6.54292,742
6.54863,672
6.55437,686
6.56008,633
6.5658,885
6.57153,439
6.57725,736
6.58297,749
6.5887,749
6.59442,776
6.60013,419
6.60587,738
6.61158,560
6.6173,659
6.62302,511
6.62875,865
6.63447,351
6.64018,682
6.64592,626
6.65163,901
6.65735,722
6.66308,420
6.6688,850
6.67452,942
6.68025,215
6.68597,753
6.69168,1235
6.69742,690
6.70313,630
6.70885,718
6.71458,645
6.7203,1100
6.72602,808
6.73175,464
6.73747,759
6.74318,608
6.74892,371
6.75463,678
6.76035,157
6.76607,697
6.7718,453
6.77752,573
6.78323,602
6.78897,591
6.79468,222
6.8004,634
6.80613,495
6.81185,215
6.81757,478
6.8233,585
6.82902,440
6.83473,673
6.84047,684
6.84618,800
6.8519,280
6.85763,631
6.86335,567
6.86907,773
6.8748,394
6.88052,615
6.88623,676
6.89195,822
6.89768,545
6.9034,345
6.90912,609
6.91485,818
6.92057,192
6.92628,642
6.93202,613
6.93773,452
6.94345,659
6.94918,889
6.9549,618
6.96062,857
6.96635,439
6.97207,384
6.97778,717
6.98352,651
6.98923,709
6.99495,241
7.00068,541
7.0064,535
7.01212,601
7.01783,494
7.02357,674
7.02928,454
7.035,665
7.04073,255
7.04645,709
7.05217,597
7.0579,459
7.06362,405
7.06933,684
7.07507,406
7.08078,1153
7.0865,800
7.09223,1240
7.09795,467
7.10367,909
7.1094,547
7.11512,1546
7.12083,650
7.12657,966
7.13228,1029
7.138,490
7.14372,421
7.14945,502
7.15517,641
7.16088,1082
7.16662,590
7.17233,459
7.17805,976
7.18378,955
7.1895,1144
7.19522,715
7.20095,1397
7.20667,1792
7.21238,1546
7.21812,1764
7.22383,1168
7.22955,2138
7.23528,1944
7.241,1368
7.24672,1228
7.25245,909
7.25817,1160
7.26388,1383
7.2696,1359
7.27533,991
7.28105,1031
7.28677,784
7.2925,1493
7.29822,1188
7.30393,1505
7.30967,1195
7.31538,1595
7.3211,1183
7.32683,1267
7.33255,782
7.33827,689
7.344,824
7.34972,1058
7.35543,1032
7.36117,428
7.36688,830
7.3726,438
7.37833,481
7.38405,1165
7.38977,618
7.39548,845
7.40122,449
7.40693,841
7.41265,445
7.41838,475
7.4241,641
7.42982,335
7.43555,406
7.44127,627
7.44698,396
7.45272,570
7.45843,573
7.46415,892
7.46988,983
7.4756,594
7.48132,258
7.48705,809
7.49277,423
7.49848,315
7.50422,588
7.50993,616
7.51565,605
7.52137,866
7.5271,827
7.53282,365
7.53853,454
7.54427,942
7.54998,389
7.5557,708
7.56143,906
7.56715,263
7.57287,820
7.5786,819
7.58432,370
7.59003,535
7.59577,775
7.60148,209
7.6072,465
7.61293,617
7.61865,728
7.62437,656
7.6301,678
7.63582,738
7.64153,199
7.64725,1028
7.65298,216
7.6587,768
7.66442,424
7.67015,624
7.67587,464
7.68158,1268
7.68732,661
7.69303,745
7.69875,743
7.70448,899
7.7102,478
7.71592,875
7.72165,702
7.72737,868
7.73308,972
7.73882,677
7.74453,776
7.75025,1317
7.75598,1261
7.7617,898
7.76742,680
7.77313,901
7.77887,394
7.78458,1411
7.7903,379
7.79603,821
7.80175,739
7.80747,1154
7.8132,485
7.81892,769
7.82463,306
7.83037,1113
7.83608,1488
7.8418,976
7.84753,1102
7.85325,659
7.85897,574
7.8647,567
7.87042,253
7.87613,977
7.88187,790
7.88758,677
7.8933,746
7.89902,914
7.90475,800
7.91047,1172
7.91618,1445
7.92192,800
7.92763,941
7.93335,889
7.93908,549
7.9448,1439
7.95052,817
7.95625,964
7.96197,821
7.96768,1382
7.97342,976
7.97913,1341
7.98485,1203
7.99058,618
7.9963,897
8.00202,932
8.00775,1000
8.01347,803
8.01918,900
8.0249,958
8.03063,1325
8.03635,1054
8.04207,1045
8.0478,1197
8.05352,1214
8.05923,910
8.06497,921
8.07068,763
8.0764,1419
8.08213,1051
8.08785,655
8.09357,798
8.0993,1266
8.10502,591
8.11073,1172
8.11647,264
8.12218,1080
8.1279,1389
8.13363,1373
8.13935,725
8.14507,1483
8.15078,1213
8.15652,1587
8.16223,1343
8.16795,1463
8.17368,1453
8.1794,1074
8.18512,1465
8.19085,1021
8.19657,1334
8.20228,1160
8.20802,939
8.21373,1277
8.21945,1286
8.22518,1676
8.2309,1356
8.23662,657
8.24235,1301
8.24807,562
8.25378,1179
8.25952,827
8.26523,795
8.27095,974
8.27667,1265
8.2824,1124
8.28812,761
8.29383,1228
8.29957,738
8.30528,1781
8.311,1454
8.31673,1711
8.32245,861
8.32817,1241
8.3339,1312
8.33962,1755
8.34533,1125
8.35107,1211
8.35678,1471
8.3625,1451
8.36823,1131
8.37395,1554
8.37967,915
8.3854,1798
8.39112,1870
8.39683,1391
8.40255,1287
8.40828,1152
8.414,1246
8.41972,1675
8.42545,1559
8.43117,1512
8.43688,1150
8.44262,1991
8.44833,550
8.45405,1539
8.45978,1354
8.4655,1862
8.47122,1588
8.47695,1294
8.48267,2122
8.48838,1601
8.49412,1571
8.49983,1967
8.50555,1470
8.51128,1586
8.517,1224
8.52272,1253
8.52843,1625
8.53417,1203
8.53988,1605
8.5456,1600
8.55133,1773
8.55705,1459
8.56277,1187
8.5685,968
8.57422,1665
8.57993,1786
8.58567,1737
8.59138,1195
8.5971,1427
8.60283,1832
8.60855,1366
8.61427,1469
8.62,1533
8.62572,1239
8.63143,1698
8.63717,1278
8.64288,1788
8.6486,1686
8.65432,1975
8.66005,1656
8.66577,2286
8.67148,1258
8.67722,776
8.68293,1460
8.68865,1120
8.69438,1103
8.7001,1838
8.70582,1089
8.71155,1053
8.71727,1356
8.72298,1899
8.72872,1231
8.73443,1354
8.74015,1571
8.74588,1196
8.7516,1659
8.75732,1956
8.76305,2550
8.76877,2165
8.77448,1350
8.7802,1978
8.78593,1304
8.79165,2133
8.79737,1490
8.8031,1379
8.80882,2458
8.81453,1866
8.82027,1862
8.82598,1588
8.8317,2126
8.83743,1377
8.84315,1257
8.84887,2426
8.8546,2412
8.86032,2087
8.86603,1671
8.87177,1825
8.87748,2221
8.8832,1555
8.88893,1650
8.89465,2500
8.90037,2504
8.90608,1470
8.91182,2206
8.91753,1378
8.92325,2074
8.92898,2244
8.9347,1871
8.94042,1653
8.94615,1439
8.95187,1844
8.95758,1754
8.96332,2076
8.96903,1837
8.97475,2174
8.98048,3948
8.9862,3329
8.99192,3014
8.99765,2802
9.00337,1955
9.00908,2002
9.01482,1998
9.02053,2330
9.02625,1283
9.03197,2014
9.0377,1906
9.04342,1691
9.04913,1782
9.05487,2196
9.06058,2417
9.0663,2582
9.07203,2301
9.07775,1690
9.08347,2300
9.0892,2723
9.09492,2044
9.10063,2091
9.10637,2491
9.11208,2132
9.1178,1927
9.12353,2185
9.12925,1978
9.13497,1971
9.1407,2966
9.14642,2975
9.15213,3199
9.15785,3385
9.16358,2029
9.1693,2217
9.17502,1763
9.18075,1874
9.18647,2136
9.19218,1861
9.19792,1672
9.20363,1537
9.20935,2339
9.21508,2121
9.2208,2182
9.22652,2071
9.23225,1655
9.23797,1891
9.24368,2018
9.24942,2060
9.25513,1317
9.26085,1200
9.26658,1980
9.2723,1743
9.27802,1853
9.28373,1950
9.28947,1525
9.29518,2227
9.3009,1382
9.30663,1979
9.31235,1582
9.31807,1390
9.3238,1855
9.32952,2239
9.33523,1759
9.34097,2237
9.34668,2178
9.3524,1960
9.35813,1932
9.36385,2611
9.36957,1753
9.3753,2165
9.38102,2126
9.38673,1923
9.39247,1876
9.39818,2019
9.4039,1731
9.40962,2307
9.41535,1982
9.42107,2201
9.42678,1824
9.43252,1909
9.43823,1991
9.44395,1700
9.44968,1738
9.4554,1508
9.46112,1492
9.46685,1473
9.47257,1723
9.47828,2005
9.48402,2230
9.48973,1762
9.49545,2107
9.50118,1880
9.5069,2498
9.51262,2088
9.51835,1969
9.52407,2524
9.52978,2117
9.5355,2580
9.54123,2222
9.54695,1919
9.55267,3080
9.5584,2298
9.56412,2578
9.56983,2045
9.57557,2482
9.58128,2218
9.587,2015
9.59273,1670
9.59845,2188
9.60417,2559
9.6099,2382
9.61562,1972
9.62133,2071
9.62707,2609
9.63278,2932
9.6385,2311
9.64423,2270
9.64995,1603
9.65567,1705
9.66138,1452
9.66712,2465
9.67283,1890
9.67855,1961
9.68428,1994
9.69,1961
9.69572,2378
9.70145,2686
9.70717,1655
9.71288,2017
9.71862,1998
9.72433,2801
9.73005,2788
9.73578,2508
9.7415,2160
9.74722,2733
9.75295,2784
9.75867,2130
9.76438,2851
9.77012,2098
9.77583,2050
9.78155,1825
9.78727,1457
9.793,2466
9.79872,1975
9.80443,1869
9.81017,1890
9.81588,2652
9.8216,2368
9.82733,2165
9.83305,2001
9.83877,2726
9.8445,2584
9.85022,2595
9.85593,2192
9.86167,2033
9.86738,2197
9.8731,2514
9.87883,1935
9.88455,2048
9.89027,2473
9.896,2109
9.90172,2209
9.90743,1582
9.91315,2620
9.91888,2150
9.9246,1591
9.93032,2590
9.93605,2279
9.94177,2463
9.94748,2548
9.95322,2146
9.95893,3086
9.96465,2767
9.97038,2341
9.9761,2638
9.98182,2916
9.98755,3098
9.99327,2299
9.99898,2215
10.0047,3082
10.0104,2450
10.0162,2377
10.0219,1771
10.0276,2422
10.0333,2438
10.039,2530
10.0448,2129
10.0505,2257
10.0562,2445
10.0619,2228
10.0677,2098
10.0734,2413
10.0791,2533
10.0848,2573
10.0905,2570
10.0963,2229
10.102,1736
10.1077,2273
10.1134,2090
10.1192,2304
10.1249,1847
10.1306,2649
10.1363,2306
10.142,2153
10.1478,2457
10.1535,2896
10.1592,1957
10.1649,1898
10.1707,2317
10.1764,2438
10.1821,2349
10.1878,2105
10.1935,2925
10.1993,2166
10.205,2051
10.2107,2060
10.2164,2836
10.2222,2970
10.2279,2130
10.2336,2469
10.2393,1850
10.245,2733
10.2508,1886
10.2565,2662
10.2622,2631
10.2679,2059
10.2737,2754
10.2794,2516
10.2851,2435
10.2908,2411
10.2965,2812
10.3023,2097
10.308,2583
10.3137,2099
10.3194,3090
10.3251,2571
10.3309,2209
10.3366,2753
10.3423,1812
10.348,1946
10.3538,2421
10.3595,2603
10.3652,1900
10.3709,2106
10.3766,2191
10.3824,2201
10.3881,2627
10.3938,1855
10.3995,2152
10.4053,2580
10.411,2996
10.4167,3447
10.4224,4042
10.4281,3388
10.4339,3681
10.4396,3194
10.4453,3457
10.451,2170
10.4568,2269
10.4625,2387
10.4682,2887
10.4739,2474
10.4796,2314
10.4854,2676
10.4911,1879
10.4968,2635
10.5025,2157
10.5083,2147
10.514,1489
10.5197,1707
10.5254,1987
10.5311,1638
10.5369,2276
10.5426,2476
10.5483,2473
10.554,2579
10.5597,2480
10.5655,2379
10.5712,2145
10.5769,2083
10.5826,2469
10.5884,2232
10.5941,3218
10.5998,3026
10.6055,2825
10.6112,3374
10.617,2587
10.6227,3148
10.6284,2757
10.6341,3328
10.6399,4770
10.6456,5027
10.6513,6115
10.657,4134
10.6627,4326
10.6685,3235
10.6742,3315
10.6799,3115
10.6856,2591
10.6914,2892
10.6971,3147
10.7028,2865
10.7085,2724
10.7142,3315
10.72,3399
10.7257,2724
10.7314,3223
10.7371,3628
10.7429,1877
10.7486,1901
10.7543,2752
10.76,2906
10.7657,2387
10.7715,3622
10.7772,2925
10.7829,3586
10.7886,3027
10.7944,3481
10.8001,2777
10.8058,2615
10.8115,2051
10.8172,2586
10.823,3780
10.8287,3588
10.8344,2876
10.8401,3043
10.8458,3004
10.8516,2372
10.8573,2644
10.863,2936
10.8687,2672
10.8745,3694
10.8802,3261
10.8859,4921
10.8916,7810
10.8973,8001
10.9031,6213
10.9088,3906
10.9145,3413
10.9202,3401
10.926,2951
10.9317,2723
10.9374,2449
10.9431,3306
10.9488,2547
10.9546,2842
10.9603,2631
10.966,2730
10.9717,2769
10.9775,2598
10.9832,2690
10.9889,3047
10.9946,3180
11.0003,4233
11.0061,4097
11.0118,4470
11.0175,3495
11.0232,4120
11.029,4462
11.0347,4085
11.0404,3443
11.0461,4228
11.0518,3561
11.0576,3925
11.0633,4405
11.069,3384
11.0747,3649
11.0804,3830
11.0862,4334
11.0919,4038
11.0976,3649
11.1033,3541
11.1091,3919
11.1148,3842
11.1205,6091
11.1262,9533
11.1319,13474
11.1377,13955
11.1434,11971
11.1491,10050
11.1548,14004
11.1606,23653
11.1663,40015
11.172,49046
11.1777,48792
11.1834,45393
11.1892,37033
11.1949,31222
11.2006,24555
11.2063,22856
11.2121,18530
11.2178,17200
11.2235,17452
11.2292,14947
11.2349,12749
11.2407,13876
11.2464,12359
11.2521,12160
11.2578,11396
11.2636,11032
11.2693,10278
11.275,10570
11.2807,10713
11.2864,10150
11.2922,9413
11.2979,10131
11.3036,9925
11.3093,8981
11.315,7829
11.3208,8284
11.3265,7851
11.3322,8790
11.3379,7310
11.3437,6896
11.3494,7396
11.3551,7411
11.3608,6693
11.3665,7367
11.3723,6043
11.378,7130
11.3837,6318
11.3894,5850
11.3952,6766
11.4009,6071
11.4066,6344
11.4123,5884
11.418,5670
11.4238,6634
11.4295,6125
11.4352,6295
11.4409,5876
11.4467,8062
11.4524,6759
11.4581,7193
11.4638,6300
11.4695,7060
11.4753,6099
11.481,5569
11.4867,5384
11.4924,5034
11.4982,5433
11.5039,5153
11.5096,4416
11.5153,5358
11.521,5263
11.5268,5268
11.5325,5243
11.5382,5121
11.5439,5098
11.5497,5217
11.5554,3212
11.5611,5092
11.5668,4542
11.5725,4000
11.5783,4749
11.584,4670
11.5897,5423
11.5954,5206
11.6011,4682
11.6069,4491
11.6126,3999
11.6183,5350
11.624,4070
11.6298,3971
11.6355,5042
11.6412,4778
11.6469,4718
11.6526,5562
11.6584,5688
11.6641,4969
11.6698,4772
11.6755,4051
11.6813,4015
11.687,4185
11.6927,5512
11.6984,5406
11.7041,4973
11.7099,5829
11.7156,6460
11.7213,5805
11.727,4440
11.7328,4205
11.7385,4558
11.7442,3720
11.7499,4916
11.7556,4827
11.7614,3779
11.7671,4780
11.7728,5436
11.7785,4117
11.7843,3372
11.79,4091
11.7957,4556
11.8014,3528
11.8071,4440
11.8129,4086
11.8186,4228
11.8243,4391
11.83,4194
11.8357,3675
11.8415,3972
11.8472,4537
11.8529,4695
11.8586,4321
11.8644,4446
11.8701,4420
11.8758,3974
11.8815,3720
11.8872,4120
11.893,3968
11.8987,4323
11.9044,3695
11.9101,5291
11.9159,4529
11.9216,4066
11.9273,3540
11.933,4168
11.9387,4297
11.9445,4184
11.9502,5140
11.9559,3395
11.9616,4495
11.9674,4510
11.9731,4145
11.9788,4470
11.9845,4505
11.9902,4643
11.996,4643
12.0017,3958
12.0074,5214
12.0131,3928
12.0189,4054
12.0246,4573
12.0303,4193
12.036,4620
12.0417,4289
12.0475,4077
12.0532,4602
12.0589,4446
12.0646,4903
12.0703,4217
12.0761,5150
12.0818,6384
12.0875,9231
12.0932,15774
12.099,19676
12.1047,19605
12.1104,13554
12.1161,9389
12.1218,5736
12.1276,4845
12.1333,4361
12.139,4800
12.1447,5280
12.1505,4095
12.1562,4367
12.1619,3549
12.1676,4647
12.1733,4413
12.1791,4059
12.1848,4669
12.1905,4520
12.1962,5425
12.202,5516
12.2077,4852
12.2134,4514
12.2191,4144
12.2248,5159
12.2306,4454
12.2363,5625
12.242,5503
12.2477,6000
12.2535,5416
12.2592,6432
12.2649,5621
12.2706,5398
12.2763,5794
12.2821,4883
12.2878,5844
12.2935,5979
12.2992,4853
12.305,6455
12.3107,5553
12.3164,5756
12.3221,5502
12.3278,4660
12.3336,5210
12.3393,5587
12.345,5028
12.3507,4896
12.3564,4632
12.3622,4926
12.3679,4553
12.3736,5944
12.3793,5824
12.3851,5194
12.3908,5727
12.3965,5112
12.4022,5449
12.4079,5403
12.4137,5259
12.4194,4802
12.4251,4597
12.4308,5119
12.4366,6632
12.4423,5711
12.448,5006
12.4537,6018
12.4594,6279
12.4652,7942
12.4709,8556
12.4766,9575
12.4823,9826
12.4881,9721
12.4938,9806
12.4995,9882
12.5052,10948
12.5109,10947
12.5167,15958
12.5224,23998
12.5281,35991
12.5338,48620
12.5396,53212
12.5453,52020
12.551,48032
12.5567,44931
12.5624,41550
12.5682,39905
12.5739,38716
12.5796,33705
12.5853,33989
12.591,30796
12.5968,27908
12.6025,27118
12.6082,25367
12.6139,23653
12.6197,21905
12.6254,19682
12.6311,18663
12.6368,18845
12.6425,18484
12.6483,16390
12.654,16850
12.6597,16159
12.6654,16827
12.6712,16136
12.6769,14979
12.6826,15566
12.6883,15395
12.694,15241
12.6998,15673
12.7055,15527
12.7112,17239
12.7169,20676
12.7227,21512
12.7284,21938
12.7341,21817
12.7398,21361
12.7455,20201
12.7513,18456
12.757,18431
12.7627,17524
12.7684,17512
12.7742,15670
12.7799,15265
12.7856,13869
12.7913,14464
12.797,13354
12.8028,13317
12.8085,13671
12.8142,12587
12.8199,11863
12.8256,11559
12.8314,12222
12.8371,11893
12.8428,10918
12.8485,11174
12.8543,10636
12.86,11636
12.8657,11863
12.8714,10620
12.8771,11307
12.8829,11428
12.8886,11079
12.8943,10488
12.9,11190
12.9058,9829
12.9115,10552
12.9172,9734
12.9229,9866
12.9286,9625
12.9344,10332
12.9401,9554
12.9458,8762
12.9515,10246
12.9573,9700
12.963,9814
12.9687,10122
12.9744,9845
12.9801,9695
12.9859,8630
12.9916,8786
12.9973,9639
13.003,9063
13.0088,8568
13.0145,8497
13.0202,9660
13.0259,9963
13.0316,9184
13.0374,9302
13.0431,9574
13.0488,8830
13.0545,8630
13.0603,7893
13.066,8476
13.0717,9195
13.0774,9049
13.0831,8471
13.0889,8465
13.0946,8544
13.1003,7433
13.106,8901
13.1117,8176
13.1175,7871
13.1232,9736
13.1289,7992
13.1346,9182
13.1404,9087
13.1461,9808
13.1518,8238
13.1575,8459
13.1632,8294
13.169,8331
13.1747,8395
13.1804,7459
13.1861,8532
13.1919,8587
13.1976,7875
13.2033,8590
13.209,9196
13.2147,8349
13.2205,8470
13.2262,8762
13.2319,8592
13.2376,7605
13.2434,7563
13.2491,8510
13.2548,8131
13.2605,7780
13.2662,7841
13.272,7898
13.2777,8899
13.2834,9346
13.2891,8042
13.2949,8415
13.3006,9497
13.3063,7895
13.312,8238
13.3177,7352
13.3235,9255
13.3292,8882
13.3349,8721
13.3406,8326
13.3463,9739
13.3521,9052
13.3578,8870
13.3635,7800
13.3692,8022
13.375,8975
13.3807,9491
13.3864,8867
13.3921,9045
13.3978,8569
13.4036,9574
13.4093,9166
13.415,8952
13.4207,9403
13.4265,8254
13.4322,9960
13.4379,9387
13.4436,9292
13.4493,9577
13.4551,9277
13.4608,9604
13.4665,9331
13.4722,9256
13.478,10457
13.4837,9065
13.4894,8945
13.4951,9408
13.5008,8131
13.5066,8867
13.5123,9612
13.518,8510
13.5237,8875
13.5295,9663
13.5352,8233
13.5409,8883
13.5466,9843
13.5523,9709
13.5581,9206
13.5638,7971
13.5695,8850
13.5752,8358
13.5809,8084
13.5867,8705
13.5924,8682
13.5981,10355
13.6038,8881
13.6096,9138
13.6153,8285
13.621,8571
13.6267,10572
13.6324,8846
13.6382,8863
13.6439,8550
13.6496,8818
13.6553,9687
13.6611,8839
13.6668,8945
13.6725,8749
13.6782,8932
13.6839,8832
13.6897,8906
13.6954,9565
13.7011,9162
13.7068,9575
13.7126,9198
13.7183,8180
13.724,8406
13.7297,8732
13.7354,8747
13.7412,9683
13.7469,9150
13.7526,8361
13.7583,9584
13.7641,10161
13.7698,9607
13.7755,10163
13.7812,9892
13.7869,9715
13.7927,8968
13.7984,8377
13.8041,10060
13.8098,10084
13.8156,9667
13.8213,8758
13.827,8716
13.8327,8156
13.8384,8793
13.8442,9657
13.8499,8578
13.8556,9659
13.8613,8430
13.867,8747
13.8728,9753
13.8785,8028
13.8842,8579
13.8899,8261
13.8957,7905
13.9014,9929
13.9071,8524
13.9128,10088
13.9185,8915
13.9243,8948
13.93,9965
13.9357,10562
13.9414,14284
13.9472,19775
13.9529,23947
13.9586,28181
13.9643,28577
13.97,27493
13.9758,24451
13.9815,24620
13.9872,21275
13.9929,20021
13.9987,17931
14.0044,19019
14.0101,16712
14.0158,13428
14.0215,14746
14.0273,12115
14.033,13532
14.0387,11971
14.0444,12385
14.0502,11171
14.0559,11210
14.0616,10082
14.0673,10181
14.073,10272
14.0788,10316
14.0845,10683
14.0902,9493
14.0959,10186
14.1016,11127
14.1074,8649
14.1131,10218
14.1188,9951
14.1245,9580
14.1303,11174
14.136,9070
14.1417,9720
14.1474,9574
14.1531,10205
14.1589,9510
14.1646,9597
14.1703,9797
14.176,10146
14.1818,8165
14.1875,9365
14.1932,10025
14.1989,9028
14.2046,10554
14.2104,8615
14.2161,10109
14.2218,9542
14.2275,9275
14.2333,9026
14.239,9536
14.2447,8866
14.2504,9736
14.2561,10336
14.2619,9452
14.2676,7935
14.2733,9406
14.279,10077
14.2848,10008
14.2905,9343
14.2962,9995
14.3019,9241
14.3076,9145
14.3134,9995
14.3191,9036
14.3248,10647
14.3305,10347
14.3363,11623
14.342,9803
14.3477,9289
14.3534,8731
14.3591,9434
14.3649,9582
14.3706,9763
14.3763,9828
14.382,9353
14.3877,10076
14.3935,9634
14.3992,10129
14.4049,10260
14.4106,10164
14.4164,10015
14.4221,9988
14.4278,10867
14.4335,9982
14.4392,9033
14.445,9537
14.4507,9317
14.4564,9965
14.4621,9832
14.4679,9644
14.4736,11252
14.4793,10530
14.485,11299
14.4907,12201
14.4965,11426
14.5022,11240
14.5079,10041
14.5136,10601
14.5194,9697
14.5251,9956
14.5308,11163
14.5365,9652
14.5422,10192
14.548,9282
14.5537,10284
14.5594,10777
14.5651,10437
14.5709,11317
14.5766,10358
14.5823,10648
14.588,9582
14.5937,9658
14.5995,10503
14.6052,10786
14.6109,10258
14.6166,11060
14.6223,10862
14.6281,11546
14.6338,11016
14.6395,11100
14.6452,10297
14.651,10317
14.6567,10885
14.6624,11356
14.6681,12547
14.6738,12027
14.6796,10871
14.6853,10799
14.691,10118
14.6967,11438
14.7025,9659
14.7082,11781
14.7139,11763
14.7196,11737
14.7253,12190
14.7311,11344
14.7368,11819
14.7425,12501
14.7482,12232
14.754,12110
14.7597,11798
14.7654,12133
14.7711,12103
14.7768,12199
14.7826,12793
14.7883,10189
14.794,11692
14.7997,11028
14.8055,11577
14.8112,12286
14.8169,12278
14.8226,11720
14.8283,12650
14.8341,13346
14.8398,10965
14.8455,13097
14.8512,12206
14.8569,13077
14.8627,11341
14.8684,12403
14.8741,12108
14.8798,11802
14.8856,11873
14.8913,12588
14.897,14324
14.9027,13363
14.9084,15087
14.9142,12831
14.9199,14991
14.9256,13454
14.9313,13207
14.9371,14513
14.9428,13322
14.9485,14523
14.9542,14364
14.9599,13945
14.9657,13485
14.9714,12643
14.9771,13682
14.9828,14112
14.9886,14692
14.9943,15082
15,13986
15.0057,12805
15.0114,14163
15.0172,13050
15.0229,13972
15.0286,14020
15.0343,12418
15.0401,12842
15.0458,14053
15.0515,13381
15.0572,13182
15.0629,13272
15.0687,11031
15.0744,13032
15.0801,13551
15.0858,14704
15.0916,14233
15.0973,13928
15.103,13743
15.1087,14284
15.1144,12784
15.1202,13400
15.1259,15396
15.1316,13234
15.1373,14932
15.143,13797
15.1488,14492
15.1545,14634
15.1602,14882
15.1659,14901
15.1717,13986
15.1774,14705
15.1831,13868
15.1888,14208
15.1945,14908
15.2003,13745
15.206,14986
15.2117,16059
15.2174,13712
15.2232,15495
15.2289,16146
15.2346,15781
15.2403,15511
15.246,16610
15.2518,16479
15.2575,15658
15.2632,15146
15.2689,15531
15.2747,16183
15.2804,16208
15.2861,16247
15.2918,15142
15.2975,14594
15.3033,16361
15.309,16615
15.3147,13912
15.3204,15326
15.3262,15265
15.3319,17577
15.3376,16676
15.3433,14899
15.349,17914
15.3548,17430
15.3605,17495
15.3662,18400
15.3719,16934
15.3776,16146
15.3834,17785
15.3891,17694
15.3948,15881
15.4005,15678
15.4063,17936
15.412,16117
15.4177,16704
15.4234,18363
15.4291,18031
15.4349,16211
15.4406,16968
15.4463,17781
15.452,17096
15.4578,17017
15.4635,17795
15.4692,18770
15.4749,18002
15.4806,18683
15.4864,18406
15.4921,17962
15.4978,19035
15.5035,17780
15.5093,17520
15.515,17872
15.5207,18673
15.5264,17425
15.5321,18571
15.5379,18233
15.5436,17487
15.5493,18038
15.555,18668
15.5608,17550
15.5665,17243
15.5722,18979
15.5779,19045
15.5836,17582
15.5894,20197
15.5951,20881
15.6008,19987
15.6065,18304
15.6122,18201
15.618,19163
15.6237,17900
15.6294,19688
15.6351,19929
15.6409,18426
15.6466,18701
15.6523,20287
15.658,20063
15.6637,19842
15.6695,20545
15.6752,20175
15.6809,20974
15.6866,20841
15.6924,20634
15.6981,19534
15.7038,21257
15.7095,20598
15.7152,21384
15.721,20376
15.7267,21384
15.7324,20793
15.7381,21759
15.7439,21503
15.7496,21638
15.7553,21504
15.761,20791
15.7667,21351
15.7725,21011
15.7782,21979
15.7839,21918
15.7896,20164
15.7954,21603
15.8011,22733
15.8068,22965
15.8125,23440
15.8182,22799
15.824,22382
15.8297,22285
15.8354,21958
15.8411,23449
15.8469,22752
15.8526,22894
15.8583,23904
15.864,23008
15.8697,24087
15.8755,24363
15.8812,24995
15.8869,25000
15.8926,24309
15.8983,23850
15.9041,23695
15.9098,24634
15.9155,25166
15.9212,21740
15.927,24375
15.9327,23657
15.9384,22886
15.9441,23944
15.9498,25533
15.9556,24834
15.9613,24669
15.967,24244
15.9727,26719
15.9785,25133
15.9842,26476
15.9899,27538
15.9956,27039
16.0013,25491
16.0071,25862
16.0128,25471
16.0185,27882
16.0242,27023
16.0299,27594
16.0357,26421
16.0414,27319
16.0471,27522
16.0528,27232
16.0586,27505
16.0643,27035
16.07,27927
16.0757,26350
16.0815,27322
16.0872,27585
16.0929,28096
16.0986,25694
16.1043,28592
16.1101,27434
16.1158,28193
16.1215,28861
16.1272,27744
16.1329,28574
16.1387,28752
16.1444,28505
16.1501,29387
16.1558,27314
16.1615,28403
16.1673,30791
16.173,29110
16.1787,29673
16.1844,29838
16.1902,30842
16.1959,31712
16.2016,28103
16.2073,29722
16.213,29203
16.2188,30909
16.2245,30609
16.2302,28141
16.2359,29137
16.2417,31051
16.2474,29954
16.2531,28949
16.2588,31486
16.2646,31003
16.2703,31501
16.276,31992
16.2817,31434
16.2874,31879
16.2932,31037
16.2989,32138
16.3046,31725
16.3103,32207
16.3161,31619
16.3218,32338
16.3275,30999
16.3332,30523
16.3389,32285
16.3447,32125
16.3504,31865
16.3561,30973
16.3618,32090
16.3675,33199
16.3733,33356
16.379,32623
16.3847,33196
16.3904,35991
16.3961,35312
16.4019,32026
16.4076,34961
16.4133,34291
16.419,34248
16.4248,32644
16.4305,34247
16.4362,34579
16.4419,35913
16.4476,35638
16.4534,37231
16.4591,35857
16.4648,34914
16.4705,35171
16.4763,36876
16.482,37496
16.4877,35503
16.4934,35112
16.4992,34946
16.5049,36273
16.5106,35190
16.5163,35735
16.522,34859
16.5278,37800
16.5335,36702
16.5392,35427
16.5449,36704
16.5507,38170
16.5564,39086
16.5621,36187
16.5678,39727
16.5735,39717
16.5792,39328
16.585,36393
16.5907,38397
16.5964,38253
16.6022,40584
16.6079,39153
16.6136,38013
16.6193,38860
16.625,39486
16.6307,37969
16.6365,40128
16.6422,39439
16.6479,38068
16.6536,38521
16.6594,39479
16.6651,39115
16.6708,39434
16.6765,40640
16.6823,38914
16.688,39878
16.6937,41895
16.6994,41591
16.7051,42676
16.7109,40813
16.7166,41181
16.7223,40769
16.728,40899
16.7338,43034
16.7395,43192
16.7452,45022
16.7509,45601
16.7566,44673
16.7624,44978
16.7681,44895
16.7738,45114
16.7795,44643
16.7853,44182
16.791,42970
16.7967,44883
16.8024,44881
16.8081,43987
16.8138,45055
16.8196,43860
16.8253,44758
16.831,43829
16.8367,43913
16.8425,43564
16.8482,45491
16.8539,45414
16.8596,49022
16.8653,47091
16.8711,45150
16.8768,43992
16.8825,47576
16.8882,45353
16.894,47534
16.8997,47940
16.9054,48183
16.9111,48545
16.9169,48477
16.9226,47991
16.9283,47292
16.934,46828
16.9397,49077
16.9455,47165
16.9512,48950
16.9569,49515
16.9626,49671
16.9684,47661
16.9741,48569
16.9798,49661
16.9855,50227
16.9912,52698
16.9969,50111
17.0027,50837
17.0084,52752
17.0141,49498
17.0199,50549
17.0256,54023
17.0313,51514
17.037,50495
17.0427,51604
17.0484,51557
17.0542,52408
17.0599,52478
17.0656,52376
17.0713,50413
17.0771,53041
17.0828,51659
17.0885,53245
17.0942,51929
17.1,52004
17.1057,52989
17.1114,53701
17.1171,52183
17.1228,51888
17.1286,53371
17.1343,53187
17.14,52629
17.1457,54559
17.1515,54115
17.1572,52662
17.1629,56252
17.1686,54425
17.1743,52327
17.1801,55339
17.1858,54321
17.1915,55266
17.1972,54999
17.203,53591
17.2087,54915
17.2144,55446
17.2201,56257
17.2258,55557
17.2316,54900
17.2373,55610
17.243,57005
17.2487,56710
17.2544,55082
17.2602,56782
17.2659,57319
17.2716,55472
17.2773,56279
17.283,54826
17.2888,57562
17.2945,57439
17.3002,55712
17.3059,57427
17.3117,59893
17.3174,58489
17.3231,59297
17.3288,56442
17.3346,56751
17.3403,57773
17.346,58345
17.3517,58275
17.3575,56699
17.3632,57918
17.3689,56249
17.3746,59001
17.3803,56535
17.3861,56714
17.3918,58240
17.3975,58612
17.4032,58754
17.4089,58987
17.4147,58786
17.4204,57532
17.4261,60351
17.4318,60956
17.4376,58253
17.4433,59717
17.449,59745
17.4547,59881
17.4604,58074
17.4662,58711
17.4719,59552
17.4776,58533
17.4833,60903
17.4891,59388
17.4948,62795
17.5005,60471
17.5062,59970
17.5119,59488
17.5177,59863
17.5234,62614
17.5291,61667
17.5348,61649
17.5406,60743
17.5463,61604
17.552,64182
17.5577,62307
17.5634,61311
17.5692,63871
17.5749,59716
17.5806,62258
17.5863,62027
17.5921,61739
17.5978,63483
17.6035,64321
17.6092,62805
17.6149,64469
17.6207,62252
17.6264,63222
17.6321,64254
17.6378,62600
17.6435,62073
17.6493,64768
17.655,61747
17.6607,60378
17.6664,64483
17.6722,65785
17.6779,63106
17.6836,64080
17.6893,62104
17.695,61542
17.7008,61901
17.7065,63485
17.7122,61238
17.7179,63101
17.7236,63697
17.7294,63821
17.7351,64196
17.7408,64816
17.7465,65763
17.7523,63755
17.758,63673
17.7637,62505
17.7694,65354
17.7752,65186
17.7809,64177
17.7866,64624
17.7923,64549
17.798,64722
17.8038,64421
17.8095,61692
17.8152,66449
17.8209,63704
17.8267,64371
17.8324,62091
17.8381,64417
17.8438,63790
17.8495,64554
17.8553,63451
17.861,65582
17.8667,65746
17.8724,67238
17.8781,64539
17.8839,63580
17.8896,65310
17.8953,64321
17.901,65495
17.9068,66351
17.9125,64202
17.9182,63344
17.9239,63144
17.9296,65609
17.9354,65471
17.9411,65729
17.9468,64910
17.9525,64757
17.9583,64226
17.964,66546
17.9697,65577
17.9754,66122
17.9811,65079
17.9869,64714
17.9926,65576
