C:\MSDCHEM\1\DATA\SERINA\20170928 LACTONE_STD_CURVE\13.d 28 Sep 17   7:23 pm
Start of data points
5.09265,104170
5.09838,105458
5.1041,108263
5.10982,108678
5.11555,111690
5.12127,109383
5.12698,112834
5.13272,111034
5.13843,112415
5.14415,113392
5.14988,117591
5.1556,116106
5.16132,114948
5.16705,120181
5.17277,120241
5.17848,114803
5.1842,118323
5.18993,113920
5.19565,110558
5.20137,109520
5.2071,105130
5.21282,102825
5.21853,100279
5.22427,96008
5.22998,93825
5.2357,90862
5.24143,86710
5.24715,84374
5.25287,84595
5.2586,80405
5.26432,77936
5.27003,76842
5.27577,72272
5.28148,71879
5.2872,69139
5.29293,70574
5.29865,69597
5.30437,69329
5.31008,68416
5.31582,67576
5.32153,69050
5.32725,65092
5.33298,61545
5.3387,65131
5.34442,62079
5.35015,63000
5.35587,62549
5.36158,58985
5.36732,61036
5.37303,61150
5.37875,60829
5.38448,60838
5.3902,61381
5.39592,61524
5.40165,59396
5.40737,61672
5.41308,56885
5.41882,57586
5.42453,60205
5.43025,56750
5.43597,57330
5.4417,58657
5.44742,54969
5.45313,58292
5.45887,56398
5.46458,56263
5.4703,53013
5.47603,51245
5.48175,56472
5.48747,53314
5.4932,53513
5.49892,56365
5.50463,53502
5.51037,53177
5.51608,55580
5.5218,54932
5.52753,54883
5.53325,52964
5.53897,53997
5.5447,52978
5.55042,53938
5.55613,52007
5.56185,52944
5.56758,51441
5.5733,50171
5.57902,52597
5.58475,49842
5.59047,48134
5.59618,51756
5.60192,51078
5.60763,52258
5.61335,50017
5.61908,49918
5.6248,48142
5.63052,50325
5.63625,49591
5.64197,48060
5.64768,49849
5.65342,50080
5.65913,50103
5.66485,48227
5.67058,47662
5.6763,49354
5.68202,48191
5.68773,48779
5.69347,45766
5.69918,47659
5.7049,50162
5.71063,47628
5.71635,47745
5.72207,44897
5.7278,48184
5.73352,48029
5.73923,48104
5.74497,47343
5.75068,46999
5.7564,49377
5.76213,46572
5.76785,48029
5.77357,45899
5.7793,45816
5.78502,46825
5.79073,45401
5.79647,45632
5.80218,46999
5.8079,47277
5.81362,47463
5.81935,48360
5.82507,48972
5.83078,51677
5.83652,48806
5.84223,49663
5.84795,48630
5.85368,44493
5.8594,44523
5.86512,45375
5.87085,45811
5.87657,44327
5.88228,42180
5.88802,47342
5.89373,47080
5.89945,44529
5.90518,46483
5.9109,44597
5.91662,45427
5.92235,43814
5.92807,43350
5.93378,42399
5.9395,42890
5.94523,42507
5.95095,41849
5.95667,42770
5.9624,41805
5.96812,40957
5.97383,42238
5.97957,42239
5.98528,42450
5.991,41886
5.99673,39773
6.00245,41152
6.00817,42200
6.0139,41198
6.01962,42794
6.02533,40497
6.03107,41528
6.03678,40280
6.0425,42973
6.04823,41430
6.05395,40531
6.05967,40933
6.0654,41765
6.07112,40386
6.07683,41544
6.08255,41161
6.08828,38614
6.094,38747
6.09972,40457
6.10545,39018
6.11117,41096
6.11688,38653
6.12262,37414
6.12833,39629
6.13405,40568
6.13978,38977
6.1455,38924
6.15122,41013
6.15695,40729
6.16267,39270
6.16838,40067
6.17412,40208
6.17983,37643
6.18555,37787
6.19128,39894
6.197,39906
6.20272,38664
6.20843,38541
6.21417,39530
6.21988,37922
6.2256,40044
6.23133,42256
6.23705,38760
6.24277,39721
6.2485,38947
6.25422,39811
6.25993,37295
6.26567,38902
6.27138,38314
6.2771,36724
6.28283,38100
6.28855,39150
6.29427,39041
6.3,37653
6.30572,38541
6.31143,39170
6.31717,36914
6.32288,37374
6.3286,37869
6.33432,38041
6.34005,36826
6.34577,36186
6.35148,37813
6.35722,36383
6.36293,34800
6.36865,37859
6.37438,36288
6.3801,36745
6.38582,37038
6.39155,36951
6.39727,36509
6.40298,35166
6.40872,38896
6.41443,36302
6.42015,36446
6.42588,34114
6.4316,36268
6.43732,36782
6.44305,34173
6.44877,38160
6.45448,36524
6.4602,35072
6.46593,35798
6.47165,35670
6.47737,36601
6.4831,37713
6.48882,35689
6.49453,36838
6.50027,35502
6.50598,35813
6.5117,35413
6.51743,35697
6.52315,35466
6.52887,33605
6.5346,33094
6.54032,35569
6.54603,37672
6.55177,37319
6.55748,34826
6.5632,37059
6.56893,36505
6.57465,37288
6.58037,36205
6.58608,36514
6.59182,34198
6.59753,35731
6.60325,34772
6.60898,34481
6.6147,35228
6.62042,34285
6.62615,33876
6.63187,35075
6.63758,34547
6.64332,36616
6.64903,35397
6.65475,35372
6.66048,33716
6.6662,34073
6.67192,33994
6.67765,35161
6.68337,34220
6.68908,36750
6.69482,33276
6.70053,33039
6.70625,35397
6.71197,35340
6.7177,34642
6.72342,35163
6.72913,36000
6.73487,34057
6.74058,33565
6.7463,32653
6.75203,32951
6.75775,32732
6.76347,33158
6.7692,34726
6.77492,33944
6.78063,33964
6.78637,32897
6.79208,34155
6.7978,32726
6.80353,30530
6.80925,35181
6.81497,32280
6.8207,32330
6.82642,33291
6.83213,33312
6.83785,34228
6.84358,34856
6.8493,34966
6.85502,33653
6.86075,32607
6.86647,33349
6.87218,35457
6.87792,31354
6.88363,34378
6.88935,34116
6.89508,33092
6.9008,32024
6.90652,34194
6.91225,31381
6.91797,33411
6.92368,31924
6.92942,32880
6.93513,33728
6.94085,30805
6.94658,32271
6.9523,34908
6.95802,35450
6.96373,34470
6.96947,34076
6.97518,32049
6.9809,31940
6.98663,34229
6.99235,33789
6.99807,32940
7.0038,32517
7.00952,33818
7.01523,32508
7.02097,31653
7.02668,31657
7.0324,31111
7.03813,32722
7.04385,32027
7.04957,32836
7.0553,31241
7.06102,33124
7.06673,30939
7.07247,32098
7.07818,31001
7.0839,33073
7.08962,32044
7.09535,32774
7.10107,30656
7.10678,33033
7.11252,30731
7.11823,30689
7.12395,33002
7.12968,33124
7.1354,32035
7.14112,31762
7.14685,32456
7.15257,31246
7.15828,32272
7.16402,31595
7.16973,32043
7.17545,32511
7.18118,31365
7.1869,31318
7.19262,32043
7.19835,30949
7.20407,31300
7.20978,31390
7.2155,31110
7.22123,32182
7.22695,33436
7.23267,32017
7.2384,31700
7.24412,32355
7.24983,33403
7.25557,33508
7.26128,30287
7.267,31054
7.27273,32068
7.27845,31705
7.28417,32951
7.2899,31021
7.29562,31438
7.30133,30136
7.30707,30976
7.31278,31330
7.3185,32693
7.32423,32843
7.32995,32993
7.33567,32744
7.34138,31362
7.34712,32888
7.35283,31457
7.35855,32514
7.36428,31205
7.37,31280
7.37572,31758
7.38145,31788
7.38717,31236
7.39288,32889
7.39862,30973
7.40433,29989
7.41005,31583
7.41578,29617
7.4215,29134
7.42722,32288
7.43295,29579
7.43867,31513
7.44438,32131
7.45012,29607
7.45583,31025
7.46155,31985
7.46727,33228
7.473,32877
7.47872,32660
7.48443,32039
7.49017,31133
7.49588,32317
7.5016,30484
7.50733,32103
7.51305,31334
7.51877,32156
7.5245,29580
7.53022,29838
7.53593,30991
7.54167,30955
7.54738,33503
7.5531,29611
7.55883,30553
7.56455,29281
7.57027,28748
7.576,30098
7.58172,31889
7.58743,32156
7.59315,31415
7.59888,32104
7.6046,30804
7.61032,30854
7.61605,30648
7.62177,32158
7.62748,29677
7.63322,30055
7.63893,30380
7.64465,31504
7.65038,33062
7.6561,29948
7.66182,31642
7.66755,32769
7.67327,31841
7.67898,29417
7.68472,30972
7.69043,32225
7.69615,32351
7.70188,30383
7.7076,30219
7.71332,29034
7.71903,31178
7.72477,29237
7.73048,32006
7.7362,30224
7.74193,29886
7.74765,29828
7.75337,29543
7.7591,29801
7.76482,30837
7.77053,29585
7.77627,31884
7.78198,29687
7.7877,31316
7.79343,30751
7.79915,30439
7.80487,30532
7.8106,30010
7.81632,28409
7.82203,30204
7.82777,29155
7.83348,31437
7.8392,29612
7.84492,31581
7.85065,28592
7.85637,30902
7.86208,29938
7.86782,31326
7.87353,31005
7.87925,31576
7.88498,30839
7.8907,30072
7.89642,30853
7.90215,30129
7.90787,28449
7.91358,29654
7.91932,30164
7.92503,31172
7.93075,32081
7.93648,32810
7.9422,31077
7.94792,32200
7.95365,30279
7.95937,32130
7.96508,30124
7.9708,30516
7.97653,29542
7.98225,30441
7.98797,30149
7.9937,29155
7.99942,27785
8.00513,32598
8.01087,29904
8.01658,28225
8.0223,28486
8.02803,29438
8.03375,29053
8.03947,29819
8.0452,30435
8.05092,31658
8.05663,29760
8.06237,30634
8.06808,31667
8.0738,28875
8.07953,28740
8.08525,30911
8.09097,29576
8.09668,30137
8.10242,29246
8.10813,29045
8.11385,31425
8.11958,30087
8.1253,29367
8.13102,29208
8.13675,30230
8.14247,28604
8.14818,29064
8.15392,30258
8.15963,31290
8.16535,31216
8.17108,30381
8.1768,28170
8.18252,31182
8.18825,29352
8.19397,28333
8.19968,29222
8.20542,30086
8.21113,30320
8.21685,30344
8.22257,30927
8.2283,30921
8.23402,29659
8.23973,29444
8.24547,30042
8.25118,27608
8.2569,28945
8.26263,27741
8.26835,28625
8.27407,28680
8.2798,28565
8.28552,30211
8.29123,27502
8.29697,28618
8.30268,28878
8.3084,28527
8.31413,28324
8.31985,30156
8.32557,29432
8.3313,28876
8.33702,30288
8.34273,29647
8.34845,28146
8.35418,29469
8.3599,31058
8.36562,29032
8.37135,28702
8.37707,28929
8.38278,31273
8.38852,29347
8.39423,27692
8.39995,28267
8.40568,28334
8.4114,27048
8.41712,29086
8.42285,28191
8.42857,28199
8.43428,28600
8.44002,30033
8.44573,27199
8.45145,28468
8.45718,28665
8.4629,30645
8.46862,28626
8.47433,27292
8.48007,29153
8.48578,28809
8.4915,28540
8.49723,28044
8.50295,29422
8.50867,27238
8.5144,29021
8.52012,27035
8.52583,27628
8.53157,30021
8.53728,27277
8.543,28286
8.54873,27831
8.55445,26903
8.56017,28793
8.5659,28420
8.57162,29099
8.57733,26248
8.58307,28181
8.58878,29076
8.5945,26201
8.60022,28921
8.60595,28226
8.61167,28770
8.61738,28236
8.62312,27117
8.62883,29661
8.63455,29006
8.64028,29121
8.646,29553
8.65172,28652
8.65745,30683
8.66317,28173
8.66888,28648
8.67462,28426
8.68033,27909
8.68605,29392
8.69178,28253
8.6975,29028
8.70322,27148
8.70895,29111
8.71467,26539
8.72038,27589
8.7261,27344
8.73183,27458
8.73755,27920
8.74327,29124
8.749,28192
8.75472,27832
8.76043,27347
8.76617,28853
8.77188,27581
8.7776,28785
8.78333,30573
8.78905,28675
8.79477,30244
8.8005,30574
8.80622,29958
8.81193,30139
8.81767,30428
8.82338,27680
8.8291,27725
8.83483,29251
8.84055,28759
8.84627,29422
8.85198,27230
8.85772,28054
8.86343,29293
8.86915,27475
8.87488,26829
8.8806,28165
8.88632,28965
8.89205,29432
8.89777,28134
8.90348,27621
8.90922,25455
8.91493,27474
8.92065,27173
8.92638,25779
8.9321,27102
8.93782,27004
8.94355,27533
8.94927,27941
8.95498,28663
8.96072,27656
8.96643,27782
8.97215,29045
8.97787,29713
8.9836,28983
8.98932,29847
8.99503,30461
9.00077,27268
9.00648,29168
9.0122,27815
9.01793,29201
9.02365,27898
9.02937,28838
9.0351,26618
9.04082,29241
9.04653,29453
9.05227,29000
9.05798,28764
9.0637,27282
9.06943,27966
9.07515,29691
9.08087,28867
9.0866,28168
9.09232,28307
9.09803,29724
9.10375,30469
9.10948,29393
9.1152,28721
9.12092,31529
9.12665,37352
9.13237,66215
9.13808,158724
9.14382,336572
9.14953,554967
9.15525,703616
9.16098,603149
9.1667,337734
9.17242,135393
9.17815,60711
9.18387,39074
9.18958,42250
9.19532,49391
9.20103,58576
9.20675,57775
9.21248,51273
9.2182,40558
9.22392,33221
9.22963,30664
9.23537,32703
9.24108,29491
9.2468,30363
9.25253,29450
9.25825,30832
9.26397,27861
9.2697,29310
9.27542,29115
9.28113,29657
9.28687,29512
9.29258,27269
9.2983,27558
9.30403,30600
9.30975,29848
9.31547,29731
9.3212,27773
9.32692,28324
9.33263,29204
9.33837,29084
9.34408,27506
9.3498,30099
9.35552,30798
9.36125,34532
9.36697,41904
9.37268,43816
9.37842,40237
9.38413,35893
9.38985,32864
9.39558,30198
9.4013,29885
9.40702,29298
9.41275,29244
9.41847,29646
9.42418,29899
9.42992,28535
9.43563,29928
9.44135,27583
9.44708,31050
9.4528,27241
9.45852,28177
9.46425,29054
9.46997,26734
9.47568,28278
9.4814,27697
9.48713,29291
9.49285,31080
9.49857,28799
9.5043,27760
9.51002,29827
9.51573,28846
9.52147,28692
9.52718,29783
9.5329,30135
9.53863,29673
9.54435,30609
9.55007,29896
9.5558,30759
9.56152,30139
9.56723,30544
9.57297,31613
9.57868,29564
9.5844,31968
9.59013,30233
9.59585,31741
9.60157,31018
9.60728,30824
9.61302,29668
9.61873,31227
9.62445,29323
9.63018,29425
9.6359,31036
9.64162,31933
9.64735,31230
9.65307,30309
9.65878,30246
9.66452,29520
9.67023,30488
9.67595,28752
9.68168,31583
9.6874,31514
9.69312,36746
9.69885,43561
9.70457,50565
9.71028,54150
9.71602,54145
9.72173,51618
9.72745,49390
9.73317,49752
9.7389,52082
9.74462,53846
9.75033,54397
9.75607,52829
9.76178,55808
9.7675,52234
9.77323,53693
9.77895,48728
9.78467,46922
9.7904,47454
9.79612,46198
9.80183,43833
9.80757,44642
9.81328,42061
9.819,43756
9.82473,39516
9.83045,39238
9.83617,39844
9.8419,39521
9.84762,39351
9.85333,36017
9.85905,36993
9.86478,36190
9.8705,37061
9.87622,35955
9.88195,36106
9.88767,36515
9.89338,36669
9.89912,36192
9.90483,35274
9.91055,35261
9.91628,34719
9.922,35495
9.92772,34925
9.93345,35105
9.93917,34315
9.94488,35848
9.95062,33619
9.95633,35843
9.96205,35190
9.96778,35202
9.9735,35154
9.97922,35693
9.98493,36253
9.99067,37546
9.99638,37034
10.0021,36304
10.0078,34458
10.0136,36068
10.0193,36365
10.025,35368
10.0307,33422
10.0364,32716
10.0422,33665
10.0479,33184
10.0536,32453
10.0593,33169
10.0651,34021
10.0708,33151
10.0765,33703
10.0822,33369
10.0879,33993
10.0937,32246
10.0994,32948
10.1051,33108
10.1108,33117
10.1166,33127
10.1223,32219
10.128,33542
10.1337,34684
10.1394,32337
10.1452,32396
10.1509,32350
10.1566,33773
10.1623,32745
10.1681,33202
10.1738,32981
10.1795,31364
10.1852,33937
10.1909,33012
10.1967,31565
10.2024,32421
10.2081,32573
10.2138,33012
10.2196,33680
10.2253,32731
10.231,34722
10.2367,32779
10.2424,34529
10.2482,32888
10.2539,32644
10.2596,32737
10.2653,33476
10.271,32840
10.2768,31511
10.2825,31240
10.2882,31921
10.2939,33774
10.2997,32254
10.3054,31885
10.3111,33012
10.3168,31834
10.3225,30603
10.3283,31047
10.334,32023
10.3397,32058
10.3454,32796
10.3512,31970
10.3569,31265
10.3626,32279
10.3683,31572
10.374,31164
10.3798,33558
10.3855,34409
10.3912,30958
10.3969,33020
10.4027,32401
10.4084,32431
10.4141,34417
10.4198,34529
10.4255,32426
10.4313,31450
10.437,32824
10.4427,31495
10.4484,31104
10.4542,32761
10.4599,34443
10.4656,31160
10.4713,32604
10.477,32487
10.4828,33382
10.4885,31850
10.4942,32694
10.4999,34070
10.5056,32429
10.5114,32426
10.5171,31220
10.5228,31366
10.5285,33607
10.5343,32534
10.54,32821
10.5457,31972
10.5514,33272
10.5571,32779
10.5629,32969
10.5686,33285
10.5743,33745
10.58,32262
10.5858,33541
10.5915,31292
10.5972,31703
10.6029,35314
10.6086,33441
10.6144,36346
10.6201,39206
10.6258,44432
10.6315,51947
10.6373,53303
10.643,50989
10.6487,42690
10.6544,35908
10.6601,33917
10.6659,31986
10.6716,31400
10.6773,30921
10.683,32566
10.6888,32285
10.6945,31962
10.7002,32776
10.7059,32673
10.7116,32410
10.7174,32043
10.7231,31366
10.7288,30197
10.7345,32242
10.7403,29487
10.746,30594
10.7517,28656
10.7574,31035
10.7631,30175
10.7689,29871
10.7746,29154
10.7803,29402
10.786,30619
10.7917,31203
10.7975,30385
10.8032,30864
10.8089,32109
10.8146,33067
10.8204,30662
10.8261,29706
10.8318,29928
10.8375,28906
10.8432,29851
10.849,27467
10.8547,29784
10.8604,27830
10.8661,28290
10.8719,28056
10.8776,28268
10.8833,28602
10.889,28702
10.8947,28967
10.9005,29831
10.9062,29509
10.9119,29751
10.9176,29391
10.9234,29951
10.9291,30033
10.9348,29315
10.9405,29498
10.9462,29413
10.952,30472
10.9577,28690
10.9634,31298
10.9691,30703
10.9749,29174
10.9806,30638
10.9863,29958
10.992,28965
10.9977,31764
11.0035,30392
11.0092,28606
11.0149,29875
11.0206,29545
11.0263,30467
11.0321,31888
11.0378,31551
11.0435,33181
11.0492,32832
11.055,35190
11.0607,39427
11.0664,42182
11.0721,43592
11.0778,44585
11.0836,49670
11.0893,53254
11.095,59359
11.1007,60738
11.1065,63607
11.1122,64081
11.1179,60458
11.1236,60121
11.1293,62701
11.1351,63583
11.1408,60468
11.1465,57644
11.1522,56786
11.158,53283
11.1637,52236
11.1694,52659
11.1751,52455
11.1808,50116
11.1866,49763
11.1923,51415
11.198,45651
11.2037,46312
11.2095,44570
11.2152,46069
11.2209,43904
11.2266,45723
11.2323,43206
11.2381,45017
11.2438,45188
11.2495,42454
11.2552,47078
11.2609,46685
11.2667,44014
11.2724,44325
11.2781,44879
11.2838,49377
11.2896,46292
11.2953,46281
11.301,45266
11.3067,43284
11.3124,42633
11.3182,41454
11.3239,39922
11.3296,40549
11.3353,38597
11.3411,37371
11.3468,40065
11.3525,38938
11.3582,37665
11.3639,39077
11.3697,38149
11.3754,36208
11.3811,34531
11.3868,36036
11.3926,36710
11.3983,36269
11.404,35548
11.4097,35480
11.4154,34111
11.4212,35872
11.4269,37002
11.4326,36914
11.4383,34458
11.4441,33619
11.4498,35729
11.4555,32508
11.4612,33211
11.4669,34671
11.4727,35359
11.4784,35470
11.4841,33404
11.4898,32419
11.4956,34634
11.5013,32681
11.507,33163
11.5127,31854
11.5184,32358
11.5242,31863
11.5299,31876
11.5356,31847
11.5413,32026
11.547,32938
11.5528,31447
11.5585,31771
11.5642,32393
11.5699,30466
11.5757,31786
11.5814,32453
11.5871,30671
11.5928,31810
11.5985,31449
11.6043,32786
11.61,32510
11.6157,30558
11.6214,29933
11.6272,29914
11.6329,32575
11.6386,32769
11.6443,31874
11.65,30464
11.6558,30797
11.6615,30620
11.6672,31550
11.6729,31625
11.6787,33477
11.6844,30955
11.6901,30608
11.6958,31267
11.7015,32731
11.7073,32013
11.713,31246
11.7187,30783
11.7244,29680
11.7302,31063
11.7359,30537
11.7416,31405
11.7473,30782
11.753,30517
11.7588,29695
11.7645,30868
11.7702,31656
11.7759,30791
11.7816,29184
11.7874,29634
11.7931,31002
11.7988,30538
11.8045,30581
11.8103,30188
11.816,31380
11.8217,32591
11.8274,31833
11.8331,31857
11.8389,30050
11.8446,30458
11.8503,30557
11.856,29929
11.8618,29787
11.8675,31212
11.8732,33689
11.8789,33447
11.8846,35585
11.8904,33825
11.8961,31152
11.9018,33417
11.9075,31347
11.9133,30389
11.919,31726
11.9247,32176
11.9304,32965
11.9361,29985
11.9419,31283
11.9476,30522
11.9533,30997
11.959,30733
11.9648,30104
11.9705,30237
11.9762,32559
11.9819,31537
11.9876,32227
11.9934,32041
11.9991,30511
12.0048,30952
12.0105,32259
12.0162,31801
12.022,32111
12.0277,30974
12.0334,31873
12.0391,31264
12.0449,29238
12.0506,30255
12.0563,31291
12.062,31801
12.0677,30470
12.0735,33436
12.0792,32407
12.0849,33719
12.0906,34731
12.0964,32862
12.1021,34217
12.1078,35705
12.1135,33414
12.1192,31774
12.125,31578
12.1307,31229
12.1364,30351
12.1421,30854
12.1479,30601
12.1536,30096
12.1593,32489
12.165,33201
12.1707,31312
12.1765,31837
12.1822,31153
12.1879,30378
12.1936,30297
12.1994,31140
12.2051,29750
12.2108,29903
12.2165,29542
12.2222,30424
12.228,29484
12.2337,29126
12.2394,27793
12.2451,30747
12.2509,29833
12.2566,31303
12.2623,30609
12.268,29469
12.2737,29293
12.2795,29396
12.2852,28892
12.2909,30334
12.2966,28906
12.3023,31157
12.3081,30855
12.3138,26584
12.3195,30126
12.3252,30091
12.331,31333
12.3367,29550
12.3424,30208
12.3481,28958
12.3538,28924
12.3596,28945
12.3653,29932
12.371,31536
12.3767,28945
12.3825,27464
12.3882,28178
12.3939,29002
12.3996,29213
12.4053,27933
12.4111,29074
12.4168,29627
12.4225,29713
12.4282,29263
12.434,30679
12.4397,32096
12.4454,30110
12.4511,30516
12.4568,30537
12.4626,28438
12.4683,28416
12.474,30026
12.4797,28403
12.4855,27908
12.4912,30693
12.4969,29671
12.5026,29420
12.5083,29181
12.5141,29504
12.5198,27573
12.5255,29232
12.5312,29289
12.5369,28641
12.5427,28448
12.5484,29858
12.5541,30276
12.5598,31325
12.5656,30758
12.5713,29647
12.577,29494
12.5827,31203
12.5884,29619
12.5942,29431
12.5999,27924
12.6056,29313
12.6113,29701
12.6171,29242
12.6228,30295
12.6285,31309
12.6342,29150
12.6399,33239
12.6457,31361
12.6514,35314
12.6571,37614
12.6628,37994
12.6686,34661
12.6743,32877
12.68,31531
12.6857,31333
12.6914,30776
12.6972,30317
12.7029,32022
12.7086,29790
12.7143,32552
12.7201,30275
12.7258,29734
12.7315,31565
12.7372,30843
12.7429,29603
12.7487,30644
12.7544,30154
12.7601,31070
12.7658,31410
12.7715,30539
12.7773,30816
12.783,31051
12.7887,33498
12.7944,30153
12.8002,31912
12.8059,31444
12.8116,31224
12.8173,32135
12.823,34318
12.8288,33425
12.8345,33611
12.8402,31434
12.8459,30623
12.8517,29825
12.8574,31387
12.8631,31758
12.8688,31504
12.8745,31189
12.8803,31857
12.886,31557
12.8917,30393
12.8974,33084
12.9032,29916
12.9089,29604
12.9146,30989
12.9203,29357
12.926,30175
12.9318,29857
12.9375,31815
12.9432,32090
12.9489,31167
12.9547,30521
12.9604,31687
12.9661,34073
12.9718,30419
12.9775,30949
12.9833,31797
12.989,29538
12.9947,31672
13.0004,32416
13.0062,33165
13.0119,31933
13.0176,30296
13.0233,33564
13.029,32733
13.0348,31595
13.0405,31652
13.0462,32218
13.0519,33288
13.0576,32151
13.0634,30787
13.0691,33570
13.0748,32820
13.0805,32887
13.0863,30182
13.092,31995
13.0977,32769
13.1034,32177
13.1091,33613
13.1149,31598
13.1206,33265
13.1263,29740
13.132,35142
13.1378,32771
13.1435,32790
13.1492,33873
13.1549,31966
13.1606,33065
13.1664,36713
13.1721,38507
13.1778,38384
13.1835,38194
13.1893,36871
13.195,34613
13.2007,36378
13.2064,34265
13.2121,36110
13.2179,34198
13.2236,37195
13.2293,34652
13.235,34298
13.2408,36894
13.2465,35465
13.2522,34088
13.2579,35150
13.2636,34860
13.2694,35093
13.2751,36003
13.2808,35220
13.2865,34595
13.2922,33749
13.298,37315
13.3037,35425
13.3094,38443
13.3151,36944
13.3209,37859
13.3266,36723
13.3323,35306
13.338,37285
13.3437,36482
13.3495,37849
13.3552,39082
13.3609,38986
13.3666,38000
13.3724,38842
13.3781,39013
13.3838,37435
13.3895,39329
13.3952,40325
13.401,39937
13.4067,38878
13.4124,40028
13.4181,40224
13.4239,39475
13.4296,38761
13.4353,41140
13.441,40383
13.4467,42304
13.4525,39995
13.4582,41257
13.4639,41254
13.4696,40924
13.4754,40769
13.4811,42176
13.4868,39910
13.4925,43326
13.4982,38941
13.504,43060
13.5097,43206
13.5154,41051
13.5211,41071
13.5268,43775
13.5326,42505
13.5383,42699
13.544,41135
13.5497,41636
13.5555,43529
13.5612,44754
13.5669,42576
13.5726,41076
13.5783,45377
13.5841,44803
13.5898,44264
13.5955,43433
13.6012,42259
13.607,43126
13.6127,44237
13.6184,42207
13.6241,42793
13.6298,44276
13.6356,44676
13.6413,43193
13.647,46382
13.6527,46611
13.6585,45946
13.6642,45428
13.6699,44769
13.6756,46985
13.6813,46749
13.6871,47043
13.6928,46286
13.6985,47387
13.7042,46605
13.71,47087
13.7157,50139
13.7214,46506
13.7271,49108
13.7328,48116
13.7386,48645
13.7443,48302
13.75,49913
13.7557,51863
13.7615,55805
13.7672,54690
13.7729,59132
13.7786,54772
13.7843,54229
13.7901,53770
13.7958,50899
13.8015,50561
13.8072,51538
13.8129,54230
13.8187,53651
13.8244,51382
13.8301,52502
13.8358,53084
13.8416,54696
13.8473,53544
13.853,55399
13.8587,58882
13.8644,61832
13.8702,63235
13.8759,67682
13.8816,62945
13.8873,63858
13.8931,59750
13.8988,63127
13.9045,60371
13.9102,62009
13.9159,60077
13.9217,57572
13.9274,58629
13.9331,59792
13.9388,58590
13.9446,58885
13.9503,61289
13.956,59755
13.9617,59000
13.9674,60259
13.9732,61141
13.9789,62430
13.9846,63596
13.9903,61890
13.9961,60382
14.0018,60876
14.0075,60632
14.0132,61518
14.0189,62442
14.0247,61817
14.0304,62711
14.0361,63068
14.0418,63850
14.0475,61418
14.0533,63780
14.059,67299
14.0647,62153
14.0704,65769
14.0762,65465
14.0819,68914
14.0876,71664
14.0933,75979
14.099,77894
14.1048,74148
14.1105,70993
14.1162,69363
14.1219,67722
14.1277,68817
14.1334,69535
14.1391,68661
14.1448,65863
14.1505,68213
14.1563,69660
14.162,68448
14.1677,67036
14.1734,68197
14.1792,68733
14.1849,69952
14.1906,69975
14.1963,69839
14.202,67932
14.2078,71884
14.2135,72843
14.2192,70783
14.2249,69994
14.2307,69977
14.2364,72279
14.2421,73427
14.2478,69893
14.2535,72132
14.2593,71991
14.265,73032
14.2707,74604
14.2764,73198
14.2821,75210
14.2879,74356
14.2936,75808
14.2993,73709
14.305,76566
14.3108,73220
14.3165,72744
14.3222,76074
14.3279,75767
14.3336,76355
14.3394,77492
14.3451,80343
14.3508,74989
14.3565,77653
14.3623,77307
14.368,75467
14.3737,77397
14.3794,79128
14.3851,78653
14.3909,79275
14.3966,80032
14.4023,78698
14.408,79996
14.4138,80649
14.4195,83273
14.4252,80489
14.4309,80664
14.4366,79340
14.4424,78125
14.4481,83362
14.4538,82189
14.4595,82552
14.4653,83243
14.471,82945
14.4767,80118
14.4824,80664
14.4881,82436
14.4939,84321
14.4996,85562
14.5053,86982
14.511,89042
14.5168,85776
14.5225,89504
14.5282,88768
14.5339,88594
14.5396,85964
14.5454,89168
14.5511,90230
14.5568,87711
14.5625,90717
14.5682,89725
14.574,91417
14.5797,88717
14.5854,90014
14.5911,92526
14.5969,91227
14.6026,90365
14.6083,95108
14.614,97195
14.6197,93039
14.6255,92516
14.6312,93861
14.6369,94351
14.6426,95563
14.6484,97645
14.6541,95997
14.6598,94062
14.6655,99679
14.6712,97486
14.677,96405
14.6827,100234
14.6884,99473
14.6941,96787
14.6999,101019
14.7056,97095
14.7113,98484
14.717,102241
14.7227,98262
14.7285,99908
14.7342,99009
14.7399,100685
14.7456,102197
14.7514,100995
14.7571,99408
14.7628,103313
14.7685,99985
14.7742,103276
14.78,104616
14.7857,104678
14.7914,106824
14.7971,107931
14.8028,109902
14.8086,106037
14.8143,101413
14.82,104750
14.8257,108898
14.8315,108662
14.8372,108962
14.8429,109994
14.8486,105102
14.8543,111121
14.8601,113864
14.8658,112305
14.8715,110751
14.8772,108070
14.883,110844
14.8887,114313
14.8944,111714
14.9001,116038
14.9058,112869
14.9116,109276
14.9173,112120
14.923,114160
14.9287,117500
14.9345,115473
14.9402,115710
14.9459,118342
14.9516,118723
14.9573,115657
14.9631,117966
14.9688,118244
14.9745,118194
14.9802,119671
14.986,120064
14.9917,120209
14.9974,118745
15.0031,120520
15.0088,121285
15.0146,121434
15.0203,120811
15.026,121393
15.0317,125358
15.0375,127277
15.0432,124676
15.0489,127068
15.0546,127992
15.0603,130289
15.0661,128153
15.0718,126506
15.0775,127719
15.0832,127325
15.0889,129809
15.0947,129623
15.1004,128971
15.1061,130320
15.1118,129546
15.1176,129455
15.1233,134914
15.129,135515
15.1347,131169
15.1404,135062
15.1462,132689
15.1519,139155
15.1576,134348
15.1633,136570
15.1691,137873
15.1748,135722
15.1805,140579
15.1862,139258
15.1919,132656
15.1977,139289
15.2034,140463
15.2091,139991
15.2148,141228
15.2206,143631
15.2263,145309
15.232,147960
15.2377,143496
15.2434,147929
15.2492,144277
15.2549,151081
15.2606,151198
15.2663,159819
15.2721,163126
15.2778,167758
15.2835,167141
15.2892,163829
15.2949,159891
15.3007,160364
15.3064,161191
15.3121,159229
15.3178,155465
15.3235,160497
15.3293,161475
15.335,156542
15.3407,157163
15.3464,158074
15.3522,159328
15.3579,159060
15.3636,164994
15.3693,162898
15.375,160148
15.3808,164601
15.3865,168620
15.3922,166406
15.3979,162577
15.4037,167026
15.4094,159907
15.4151,165761
15.4208,168229
15.4265,165948
15.4323,171437
15.438,169432
15.4437,174671
15.4494,169884
15.4552,170545
15.4609,167608
15.4666,169376
15.4723,176163
15.478,173939
15.4838,172527
15.4895,178911
15.4952,177682
15.5009,176565
15.5067,172903
15.5124,178873
15.5181,179929
15.5238,181405
15.5295,181255
15.5353,177866
15.541,179464
15.5467,179933
15.5524,182636
15.5581,186799
15.5639,185738
15.5696,181956
15.5753,186091
15.581,181634
15.5868,186013
15.5925,185221
15.5982,188514
15.6039,190411
15.6096,189671
15.6154,188918
15.6211,192380
15.6268,193095
15.6325,191830
15.6383,194809
15.644,198867
15.6497,193149
15.6554,195921
15.6611,199256
15.6669,201941
15.6726,203907
15.6783,201296
15.684,198398
15.6898,201619
15.6955,201014
15.7012,205379
15.7069,203723
15.7126,202112
15.7184,202744
15.7241,204479
15.7298,210655
15.7355,208621
15.7413,209823
15.747,206969
15.7527,211706
15.7584,214507
15.7641,215979
15.7699,216673
15.7756,218344
15.7813,219810
15.787,219513
15.7928,224169
15.7985,220885
15.8042,223701
15.8099,226591
15.8156,223656
15.8214,223757
15.8271,228238
15.8328,226686
15.8385,229040
15.8442,226793
15.85,226891
15.8557,231885
15.8614,231848
15.8671,233307
15.8729,232346
15.8786,234118
15.8843,232891
15.89,238143
15.8957,237213
15.9015,240952
15.9072,239612
15.9129,242321
15.9186,244985
15.9244,245897
15.9301,246014
15.9358,249449
15.9415,252211
15.9472,247585
15.953,254102
15.9587,252021
15.9644,256699
15.9701,258135
15.9759,257222
15.9816,258464
15.9873,257902
15.993,260843
15.9987,260539
16.0044,260647
16.0102,265467
16.0159,264236
16.0216,265011
16.0273,269614
16.0331,264468
16.0388,268370
16.0445,261910
16.0502,269518
16.0559,268003
16.0617,267967
16.0674,269164
16.0731,270022
16.0788,271102
16.0846,274681
16.0903,277089
16.096,283694
16.1017,276205
16.1075,279557
16.1132,275686
16.1189,281363
16.1246,277669
16.1303,286128
16.1361,286177
16.1418,286214
16.1475,283610
16.1532,288202
16.159,286409
16.1647,294342
16.1704,284876
16.1761,286361
16.1818,290908
16.1876,293087
16.1933,295269
16.199,294031
16.2047,292729
16.2105,291151
16.2162,299067
16.2219,292452
16.2276,298694
16.2333,299628
16.239,295998
16.2448,303801
16.2505,302182
16.2562,300864
16.2619,303466
16.2677,309092
16.2734,309092
16.2791,309997
16.2848,311918
16.2906,312881
16.2963,316016
16.302,315316
16.3077,314104
16.3134,313526
16.3192,320564
16.3249,316783
16.3306,320128
16.3363,323687
16.3421,329113
16.3478,326577
16.3535,324191
16.3592,329756
16.3649,330422
16.3707,340443
16.3764,345417
16.3821,349627
16.3878,341270
16.3936,342418
16.3993,343011
16.405,339492
16.4107,341137
16.4164,342443
16.4222,345654
16.4279,347682
16.4336,344465
16.4393,346282
16.445,345755
16.4508,350866
16.4565,348192
16.4622,348001
16.4679,345333
16.4736,354018
16.4794,354753
16.4851,358256
16.4908,356126
16.4965,362760
16.5023,362521
16.508,360390
16.5137,360818
16.5194,366701
16.5252,359935
16.5309,366073
16.5366,365916
16.5423,371931
16.5481,374616
16.5538,367851
16.5595,370505
16.5652,370672
16.5709,366769
16.5767,377306
16.5824,369233
16.5881,372433
16.5938,375824
16.5995,374556
16.6053,377902
16.611,373990
16.6167,369369
16.6224,374800
16.6282,385035
16.6339,386705
16.6396,381505
16.6453,385394
16.651,391146
16.6568,388083
16.6625,384405
16.6682,393248
16.6739,402189
16.6796,398388
16.6854,396956
16.6911,399005
16.6968,405534
16.7025,406190
16.7083,409825
16.714,418404
16.7197,416934
16.7254,413562
16.7312,411931
16.7369,419808
16.7426,420299
16.7483,416501
16.754,417599
16.7598,419874
16.7655,421378
16.7712,426209
16.7769,428070
16.7827,423067
16.7884,419379
16.7941,418770
16.7998,426504
16.8055,428491
16.8113,436119
16.817,436147
16.8227,435485
16.8284,436339
16.8341,431917
16.8399,440938
16.8456,444731
16.8513,442918
16.857,444581
16.8627,444647
16.8685,445533
16.8742,451084
16.8799,452995
16.8856,454251
16.8914,452567
16.8971,465458
16.9028,465053
16.9085,462516
16.9142,466038
16.92,477222
16.9257,469861
16.9314,478086
16.9371,480997
16.9429,485267
16.9486,475652
16.9543,477294
16.96,481607
16.9658,484407
16.9715,478738
16.9772,487161
16.9829,484596
16.9886,489776
16.9944,492466
17.0001,494754
17.0058,497535
17.0115,494885
17.0173,506975
17.023,502422
17.0287,504052
17.0344,504220
17.0401,508121
17.0459,504382
17.0516,510738
17.0573,511448
17.063,520137
17.0687,519697
17.0745,517187
17.0802,516817
17.0859,512531
17.0916,528474
17.0973,520505
17.1031,525868
17.1088,524959
17.1145,538711
17.1202,529526
17.126,528845
17.1317,534646
17.1374,539101
17.1431,547099
17.1488,547325
17.1546,547002
17.1603,538898
17.166,537070
17.1717,551889
17.1775,550411
17.1832,546522
17.1889,561798
17.1946,567068
17.2004,561446
17.2061,569594
17.2118,569350
17.2175,578180
17.2232,575504
17.229,580516
17.2347,575472
17.2404,586287
17.2461,579286
17.2519,585146
17.2576,590801
17.2633,595088
17.269,590129
17.2747,605610
17.2804,599135
17.2862,600621
17.2919,597277
17.2976,604765
17.3033,607982
17.3091,616678
17.3148,608806
17.3205,618757
17.3262,604741
17.3319,612757
17.3377,617363
17.3434,621665
17.3491,608355
17.3548,606795
17.3606,614990
17.3663,612128
17.372,614089
17.3777,625174
17.3835,628270
17.3892,630079
17.3949,634279
17.4006,641516
17.4063,643541
17.4121,650698
17.4178,655188
17.4235,660278
17.4292,668527
17.435,669729
17.4407,669077
17.4464,665291
17.4521,671015
17.4578,665776
17.4636,671709
17.4693,664741
17.475,667707
17.4807,669437
17.4865,670884
17.4922,675868
17.4979,682302
17.5036,686242
17.5093,680546
17.5151,694972
17.5208,702950
17.5265,699978
17.5322,708285
17.538,713096
17.5437,698905
17.5494,710301
17.5551,719019
17.5608,720222
17.5665,713448
17.5723,718869
17.578,725952
17.5837,727143
17.5894,733972
17.5952,744471
17.6009,739658
17.6066,747051
17.6123,748434
17.6181,741456
17.6238,737477
17.6295,747289
17.6352,753990
17.6409,751772
17.6467,757169
17.6524,751091
17.6581,755192
17.6638,755957
17.6696,754216
17.6753,754505
17.681,754489
17.6867,749060
17.6924,752691
17.6982,750015
17.7039,753174
17.7096,754802
17.7153,761934
17.7211,768081
17.7268,762027
17.7325,764856
17.7382,758566
17.7439,763416
17.7497,762414
17.7554,775397
17.7611,777624
17.7668,777537
17.7726,770985
17.7783,777915
17.784,775697
17.7897,778416
17.7954,772302
17.8012,788444
17.8069,786105
17.8126,783578
17.8183,779101
17.824,786292
17.8298,773252
17.8355,780356
17.8412,776906
17.8469,787746
17.8527,795356
17.8584,789236
17.8641,794392
17.8698,801758
17.8755,799198
17.8813,798073
17.887,789510
17.8927,787753
17.8984,789716
17.9042,788687
17.9099,780398
17.9156,779096
17.9213,790514
17.927,788333
17.9328,791254
17.9385,788305
17.9442,798863
17.9499,789666
17.9557,788612
17.9614,799872
17.9671,800806
17.9728,792534
17.9785,794829
17.9842,793325
17.99,801120
17.9957,798209
18.0014,793786
18.0071,792552
18.0129,793925
18.0186,801004
18.0243,795607
18.03,783749
18.0358,795572
18.0415,793063
18.0472,802937
18.0529,798471
18.0587,793279
18.0644,789455
18.0701,791186
18.0758,796780
18.0815,788448
18.0873,789269
18.093,794459
18.0987,793685
18.1044,789407
18.1101,792900
18.1159,791683
18.1216,795519
18.1273,793208
18.133,799866
18.1388,806033
18.1445,804259
18.1502,799824
18.1559,798026
18.1616,803813
18.1674,803405
18.1731,800104
18.1788,814115
18.1845,805733
18.1903,792283
18.196,794627
18.2017,795791
18.2074,803895
18.2131,799417
18.2189,795155
18.2246,788460
18.2303,793340
18.236,809005
18.2418,806952
18.2475,809227
18.2532,810812
18.2589,815941
18.2646,814291
18.2704,818686
18.2761,815924
18.2818,806165
18.2875,818504
18.2933,811147
18.299,816588
18.3047,815312
18.3104,825493
18.3161,825794
18.3219,825002
18.3276,820609
18.3333,833405
18.339,823846
18.3447,819372
18.3505,823777
18.3562,817924
18.3619,835631
18.3676,828012
18.3734,820544
18.3791,808507
18.3848,809916
18.3905,814699
18.3962,814913
18.402,805793
18.4077,810438
18.4134,807702
18.4191,823386
18.4248,823778
18.4306,812507
18.4363,820343
18.442,818737
18.4477,824386
18.4535,824731
18.4592,827487
18.4649,823811
18.4706,823798
18.4764,825054
18.4821,830438
18.4878,839631
18.4935,837938
18.4992,850970
18.505,841147
18.5107,846304
18.5164,845523
18.5221,841867
18.5279,829041
18.5336,830249
18.5393,832450
18.545,825764
18.5507,822891
18.5565,828359
18.5622,820767
18.5679,831667
18.5736,839591
18.5793,839584
18.5851,838981
18.5908,833466
18.5965,833027
18.6022,831561
18.608,831463
18.6137,825931
18.6194,830973
18.6251,841697
18.6308,834518
18.6366,837638
18.6423,839072
18.648,833218
18.6537,849075
18.6595,845432
18.6652,841068
18.6709,845676
18.6766,841505
18.6823,835920
18.6881,841561
18.6938,851662
18.6995,848034
18.7052,850589
18.711,853020
18.7167,855751
18.7224,851708
18.7281,857582
18.7338,859542
18.7396,853745
18.7453,855094
18.751,866003
18.7567,845483
18.7625,863839
18.7682,856629
18.7739,859044
18.7796,861423
18.7853,853413
18.7911,854314
18.7968,857984
18.8025,858883
18.8082,870618
18.814,875738
18.8197,875125
18.8254,864166
18.8311,870301
18.8368,866124
18.8425,869614
18.8483,869750
18.854,867837
18.8597,871425
18.8654,871714
18.8712,876501
18.8769,872852
18.8826,875090
18.8883,869705
18.8941,875339
18.8998,875852
18.9055,867013
18.9112,870739
18.9169,871587
18.9227,872336
18.9284,857636
18.9341,856552
18.9398,863276
18.9456,857737
18.9513,859254
18.957,865228
18.9627,862025
18.9684,861377
18.9742,873799
18.9799,867366
18.9856,871620
18.9913,861430
18.9971,863708
19.0028,868505
19.0085,870268
19.0142,862585
19.0199,859159
19.0257,860170
19.0314,862128
19.0371,877207
19.0428,865393
19.0486,873227
19.0543,866318
19.06,870448
19.0657,865225
19.0714,873929
19.0772,879560
19.0829,894417
19.0886,884426
19.0943,875513
19.1,876237
19.1058,868817
19.1115,882545
19.1172,885157
19.1229,892645
19.1287,887244
19.1344,889520
19.1401,880474
19.1458,898835
19.1515,898108
19.1573,888610
19.163,880181
19.1687,879083
19.1744,890455
19.1802,887765
19.1859,900561
19.1916,882608
19.1973,890481
19.203,880084
19.2088,884519
19.2145,874148
19.2202,877149
19.2259,879872
19.2317,879917
19.2374,889577
19.2431,885206
19.2488,874578
19.2545,865288
19.2602,874794
19.266,869903
19.2717,874294
19.2774,874888
19.2832,878710
19.2889,875299
19.2946,880939
19.3003,866108
19.306,867718
19.3118,871329
19.3175,878207
19.3232,876320
19.3289,875278
19.3346,874192
19.3404,873836
19.3461,860768
19.3518,864506
19.3575,856542
19.3633,866938
19.369,865521
19.3747,864589
19.3804,868562
19.3861,871547
19.3919,868317
19.3976,883738
19.4033,884956
19.409,875626
19.4148,867641
19.4205,871668
19.4262,872120
19.4319,860112
19.4376,859570
19.4434,849597
19.4491,868929
19.4548,859016
19.4605,852992
19.4663,849823
19.472,856309
19.4777,870612
19.4834,849624
19.4891,860920
19.4949,857038
19.5006,851933
19.5063,848617
19.512,840206
19.5177,849676
19.5235,849256
19.5292,848989
19.5349,850893
19.5406,849856
19.5464,852566
19.5521,851604
19.5578,843341
19.5635,840730
19.5693,840305
19.575,846775
19.5807,842854
19.5864,840580
19.5921,835376
19.5979,841694
19.6036,854920
19.6093,845743
19.615,847153
19.6207,843533
19.6265,846934
19.6322,849000
19.6379,839277
19.6436,836168
19.6494,843697
19.6551,844907
19.6608,841937
19.6665,846152
19.6722,843905
19.678,845624
19.6837,838800
19.6894,839217
19.6951,840839
19.7009,849185
19.7066,832478
19.7123,837259
19.718,831833
19.7237,842413
19.7295,831923
19.7352,827979
19.7409,830475
19.7466,826474
19.7524,829991
19.7581,844468
19.7638,827829
19.7695,826448
19.7752,823292
19.781,834286
19.7867,840623
19.7924,840933
19.7981,845906
19.8039,841500
19.8096,850210
19.8153,835062
19.821,844134
19.8267,845685
19.8325,835172
19.8382,831253
19.8439,835889
19.8496,832242
19.8553,830554
19.8611,837137
19.8668,840310
19.8725,827839
19.8782,833146
19.884,830086
19.8897,830084
19.8954,827359
19.9011,832307
19.9068,826040
19.9126,823211
19.9183,822304
19.924,816249
19.9297,833566
19.9354,830986
19.9412,824766
19.9469,827533
19.9526,823907
19.9583,817888
19.9641,810356
19.9698,809579
19.9755,812887
19.9812,817613
19.987,818015
19.9927,815751
19.9984,821690
20.0041,814798
20.0098,818958
20.0156,829168
20.0213,819763
20.027,811516
20.0327,818369
20.0385,812061
20.0442,815228
20.0499,813114
20.0556,805783
20.0613,813623
20.0671,810947
20.0728,816961
20.0785,818372
20.0842,822160
20.09,825650
20.0957,814964
20.1014,827792
20.1071,816078
20.1128,815198
20.1186,819458
20.1243,815135
20.13,815006
20.1357,818831
20.1414,828789
20.1472,823278
20.1529,819841
20.1586,818196
20.1643,819144
20.1701,828062
20.1758,821515
20.1815,827639
20.1872,822989
20.1929,816590
20.1987,823031
20.2044,817918
20.2101,815099
20.2158,813720
20.2216,819946
20.2273,818874
20.233,806717
20.2387,807449
20.2444,810715
20.2502,808557
20.2559,803362
20.2616,795345
20.2673,812649
20.2731,803673
20.2788,815314
20.2845,816502
20.2902,807445
20.2959,805810
20.3017,807322
20.3074,804120
20.3131,806099
20.3188,797357
20.3246,809654
20.3303,801440
20.336,797207
20.3417,800763
20.3474,793128
20.3531,792482
20.3589,800304
20.3646,795042
20.3703,790310
20.376,799506
20.3818,794239
20.3875,787604
20.3932,789782
20.3989,783780
20.4047,787933
20.4104,790208
20.4161,799349
20.4218,798554
20.4275,789126
20.4333,789780
20.439,797399
20.4447,794404
20.4504,803134
20.4562,795605
20.4619,807281
20.4676,800977
20.4733,795163
20.479,794196
20.4848,792102
20.4905,801914
