C:\MSDCHEM\1\DATA\BECKY\20180124 2 PHASE EXTR 2\1-23-18 MS 3A.d 24 Jan 18   8:56 pm
Start of data points
3.09263,10580
3.09835,11044
3.10407,10417
3.1098,11446
3.11552,10947
3.12123,11070
3.12695,11232
3.13268,10959
3.1384,11405
3.14412,10494
3.14985,10371
3.15557,9608
3.16128,10263
3.16702,10570
3.17273,10224
3.17845,9760
3.18418,10461
3.1899,10070
3.19562,9969
3.20135,9173
3.20707,9741
3.21278,10258
3.21852,9909
3.22423,9113
3.22995,9859
3.23568,8690
3.2414,9434
3.24712,9406
3.25283,9210
3.25857,8941
3.26428,9814
3.27,8015
3.27573,7960
3.28145,7623
3.28717,7499
3.2929,7835
3.29862,8663
3.30433,7784
3.31007,7180
3.31578,6999
3.3215,6839
3.32723,6666
3.33295,6077
3.33867,6243
3.3444,6769
3.35012,7302
3.35583,6037
3.36157,6926
3.36728,6836
3.373,6591
3.37872,6253
3.38445,6230
3.39017,6771
3.39588,5649
3.40162,5819
3.40733,6118
3.41305,5244
3.41878,5309
3.4245,6839
3.43022,5978
3.43595,6703
3.44167,6189
3.44738,6366
3.45312,5340
3.45883,5838
3.46455,4968
3.47028,5376
3.476,5854
3.48172,4897
3.48745,5938
3.49317,5348
3.49888,4407
3.5046,5080
3.51033,5168
3.51605,5264
3.52177,4737
3.5275,4906
3.53322,4411
3.53893,4848
3.54467,3969
3.55038,4513
3.5561,4032
3.56183,3764
3.56755,4177
3.57327,5013
3.579,4803
3.58472,4340
3.59043,3952
3.59617,4407
3.60188,3665
3.6076,4600
3.61333,4282
3.61905,3331
3.62477,3939
3.63048,3226
3.63622,4074
3.64193,3754
3.64765,4194
3.65338,4001
3.6591,4345
3.66482,4453
3.67055,3770
3.67627,3355
3.68198,3600
3.68772,4072
3.69343,4248
3.69915,3678
3.70488,3995
3.7106,3276
3.71632,3264
3.72205,3557
3.72777,3722
3.73348,3546
3.73922,3508
3.74493,3569
3.75065,3906
3.75637,3624
3.7621,2995
3.76782,2915
3.77353,3743
3.77927,4008
3.78498,3915
3.7907,2710
3.79643,4239
3.80215,3330
3.80787,2602
3.8136,2384
3.81932,2253
3.82503,3377
3.83077,2820
3.83648,2873
3.8422,2871
3.84793,3101
3.85365,2815
3.85937,4272
3.8651,3339
3.87082,3606
3.87653,3229
3.88225,2281
3.88798,3527
3.8937,3568
3.89942,2410
3.90515,3010
3.91087,2659
3.91658,2877
3.92232,2595
3.92803,2275
3.93375,3245
3.93948,2354
3.9452,2767
3.95092,2256
3.95665,2749
3.96237,2516
3.96808,3266
3.97382,2955
3.97953,2093
3.98525,2448
3.99098,2799
3.9967,3467
4.00242,3112
4.00813,3058
4.01387,3289
4.01958,2647
4.0253,2924
4.03103,2496
4.03675,3022
4.04247,2418
4.0482,3993
4.05392,3155
4.05963,3486
4.06537,3625
4.07108,2762
4.0768,3000
4.08253,3220
4.08825,3386
4.09397,3083
4.0997,2506
4.10542,2521
4.11113,2935
4.11687,2607
4.12258,2483
4.1283,2722
4.13402,2892
4.13975,2667
4.14547,3819
4.15118,2470
4.15692,1723
4.16263,2412
4.16835,2874
4.17408,2898
4.1798,2389
4.18552,2181
4.19125,2886
4.19697,2019
4.20268,2562
4.20842,1823
4.21413,2338
4.21985,2856
4.22558,1882
4.2313,1489
4.23702,2369
4.24275,2358
4.24847,1958
4.25418,1771
4.2599,2074
4.26563,2092
4.27135,2410
4.27707,2138
4.2828,1779
4.28852,2469
4.29423,2293
4.29997,2254
4.30568,2021
4.3114,2462
4.31713,2486
4.32285,1990
4.32857,2076
4.3343,2291
4.34002,2162
4.34573,2053
4.35147,2296
4.35718,1907
4.3629,2927
4.36863,2885
4.37435,2612
4.38007,3891
4.38578,3592
4.39152,3176
4.39723,2658
4.40295,3394
4.40868,3241
4.4144,2906
4.42012,3372
4.42585,2677
4.43157,2501
4.43728,3020
4.44302,2630
4.44873,1920
4.45445,2706
4.46018,2564
4.4659,2958
4.47162,3654
4.47735,2803
4.48307,2501
4.48878,2589
4.49452,3041
4.50023,2286
4.50595,2680
4.51167,1884
4.5174,3318
4.52312,2374
4.52883,2216
4.53457,2973
4.54028,2885
4.546,2485
4.55173,2315
4.55745,2770
4.56317,2116
4.5689,1618
4.57462,2020
4.58033,2482
4.58607,2156
4.59178,2403
4.5975,2680
4.60323,1927
4.60895,1432
4.61467,1795
4.6204,1942
4.62612,2123
4.63183,1832
4.63755,2338
4.64328,2419
4.649,1662
4.65472,1461
4.66045,1848
4.66617,2661
4.67188,2324
4.67762,2245
4.68333,1496
4.68905,1923
4.69478,1901
4.7005,2603
4.70622,1710
4.71195,2261
4.71767,2427
4.72338,1666
4.72912,1781
4.73483,2581
4.74055,2224
4.74628,1775
4.752,2165
4.75772,2289
4.76343,1957
4.76917,2019
4.77488,2393
4.7806,2045
4.78633,1345
4.79205,1654
4.79777,1532
4.8035,1891
4.80922,1845
4.81493,1683
4.82067,1565
4.82638,2455
4.8321,1308
4.83783,1885
4.84355,1846
4.84927,1144
4.855,1854
4.86072,2064
4.86643,1281
4.87217,2082
4.87788,1876
4.8836,1102
4.88932,1603
4.89505,1447
4.90077,1771
4.90648,1726
4.91222,1736
4.91793,2084
4.92365,1519
4.92938,1560
4.9351,1612
4.94082,1380
4.94655,1703
4.95227,1603
4.95798,1726
4.96372,1495
4.96943,2176
4.97515,1219
4.98088,1759
4.9866,1002
4.99232,1837
4.99805,1676
5.00377,1774
5.00948,1776
5.0152,1225
5.02093,1412
5.02665,1209
5.03237,1558
5.0381,4349
5.04382,8620
5.04953,12904
5.05527,14672
5.06098,13197
5.0667,11968
5.07243,16774
5.07815,26031
5.08387,37428
5.0896,44045
5.09532,51078
5.10103,50522
5.10677,48078
5.11248,47061
5.1182,44486
5.12393,43740
5.12965,38687
5.13537,37332
5.14108,33428
5.14682,30787
5.15253,28594
5.15825,27070
5.16398,25926
5.1697,23708
5.17542,22508
5.18115,21074
5.18687,18352
5.19258,17298
5.19832,16136
5.20403,16009
5.20975,14890
5.21548,15112
5.2212,12680
5.22692,13121
5.23265,11499
5.23837,12234
5.24408,10811
5.24982,10163
5.25553,9282
5.26125,8050
5.26697,7752
5.2727,7878
5.27842,7423
5.28413,7264
5.28987,7338
5.29558,5461
5.3013,5461
5.30703,5571
5.31275,5224
5.31847,4619
5.3242,5372
5.32992,4634
5.33563,4146
5.34137,4325
5.34708,4090
5.3528,3568
5.35853,3125
5.36425,2854
5.36997,3604
5.3757,3415
5.38142,2865
5.38713,3138
5.39285,2923
5.39858,2450
5.4043,3057
5.41002,2301
5.41575,3337
5.42147,2625
5.42718,2793
5.43292,3620
5.43863,2662
5.44435,2776
5.45008,2612
5.4558,2089
5.46152,1617
5.46725,1810
5.47297,1847
5.47868,1522
5.48442,1559
5.49013,2007
5.49585,2200
5.50158,1175
5.5073,1280
5.51302,1417
5.51873,1650
5.52447,1903
5.53018,2494
5.5359,1801
5.54163,1089
5.54735,1308
5.55307,2848
5.5588,1341
5.56452,1374
5.57023,1630
5.57597,1374
5.58168,1738
5.5874,1534
5.59313,1328
5.59885,1665
5.60457,2066
5.6103,1254
5.61602,1400
5.62173,734
5.62747,1383
5.63318,1258
5.6389,1724
5.64462,1049
5.65035,1716
5.65607,1575
5.66178,763
5.66752,1508
5.67323,1303
5.67895,1002
5.68468,1170
5.6904,1594
5.69612,1710
5.70185,1097
5.70757,1071
5.71328,1312
5.71902,1163
5.72473,1208
5.73045,739
5.73618,872
5.7419,1202
5.74762,1204
5.75335,818
5.75907,660
5.76478,1232
5.7705,1138
5.77623,496
5.78195,1057
5.78767,545
5.7934,864
5.79912,642
5.80483,857
5.81057,1159
5.81628,661
5.822,995
5.82773,799
5.83345,1523
5.83917,587
5.8449,989
5.85062,996
5.85633,703
5.86207,618
5.86778,901
5.8735,956
5.87923,1087
5.88495,590
5.89067,730
5.8964,690
5.90212,848
5.90783,586
5.91355,997
5.91928,381
5.925,984
5.93072,537
5.93645,493
5.94217,894
5.94788,481
5.95362,1424
5.95933,1110
5.96505,1279
5.97078,691
5.9765,612
5.98222,1085
5.98795,453
5.99367,619
5.99938,676
6.00512,618
6.01083,546
6.01655,1106
6.02228,333
6.028,1217
6.03372,1363
6.03943,1167
6.04517,616
6.05088,557
6.0566,1104
6.06233,1031
6.06805,970
6.07377,1088
6.0795,778
6.08522,1126
6.09093,1436
6.09667,801
6.10238,981
6.1081,570
6.11383,946
6.11955,1223
6.12527,773
6.131,1267
6.13672,726
6.14243,807
6.14817,664
6.15388,746
6.1596,526
6.16532,530
6.17105,1070
6.17677,486
6.18248,336
6.18822,532
6.19393,854
6.19965,1411
6.20538,755
6.2111,441
6.21682,510
6.22255,266
6.22827,502
6.23398,782
6.23972,803
6.24543,229
6.25115,507
6.25688,599
6.2626,1234
6.26832,571
6.27405,773
6.27977,614
6.28548,583
6.2912,982
6.29693,678
6.30265,1183
6.30837,675
6.3141,839
6.31982,615
6.32553,1061
6.33127,696
6.33698,781
6.3427,633
6.34843,571
6.35415,711
6.35987,1083
6.3656,807
6.37132,419
6.37703,690
6.38277,153
6.38848,940
6.3942,590
6.39993,941
6.40565,598
6.41137,401
6.41708,1118
6.42282,860
6.42853,978
6.43425,584
6.43998,783
6.4457,440
6.45142,926
6.45715,1226
6.46287,351
6.46858,934
6.47432,787
6.48003,778
6.48575,1024
6.49148,694
6.4972,386
6.50292,420
6.50865,652
6.51437,738
6.52008,413
6.52582,461
6.53153,545
6.53725,389
6.54297,731
6.5487,1066
6.55442,537
6.56013,716
6.56587,832
6.57158,799
6.5773,629
6.58303,758
6.58875,1010
6.59447,875
6.6002,433
6.60592,678
6.61163,1025
6.61737,339
6.62308,751
6.6288,909
6.63453,243
6.64025,338
6.64597,483
6.6517,765
6.65742,492
6.66313,502
6.66885,275
6.67458,546
6.6803,417
6.68602,410
6.69175,875
6.69747,1408
6.70318,977
6.70892,1156
6.71463,484
6.72035,547
6.72608,622
6.7318,728
6.73752,618
6.74325,305
6.74897,666
6.75468,807
6.76042,726
6.76613,723
6.77185,912
6.77758,363
6.7833,954
6.78902,916
6.79473,265
6.80047,481
6.80618,589
6.8119,653
6.81763,522
6.82335,390
6.82907,246
6.8348,847
6.84052,720
6.84623,597
6.85197,289
6.85768,600
6.8634,427
6.86913,278
6.87485,663
6.88057,699
6.8863,926
6.89202,472
6.89773,539
6.90347,390
6.90918,258
6.9149,821
6.92062,338
6.92635,445
6.93207,962
6.93778,870
6.94352,988
6.94923,765
6.95495,701
6.96068,779
6.9664,531
6.97212,721
6.97785,959
6.98357,669
6.98928,441
6.99502,596
7.00073,153
7.00645,578
7.01218,577
7.0179,862
7.02362,685
7.02935,617
7.03507,591
7.04078,486
7.0465,187
7.05223,429
7.05795,636
7.06367,445
7.0694,855
7.07512,801
7.08083,587
7.08657,915
7.09228,918
7.098,665
7.10373,874
7.10945,944
7.11517,771
7.1209,928
7.12662,1146
7.13233,519
7.13807,643
7.14378,1113
7.1495,1380
7.15523,1134
7.16095,293
7.16667,728
7.17238,778
7.17812,268
7.18383,864
7.18955,386
7.19528,1300
7.201,1913
7.20672,2066
7.21245,1683
7.21817,2334
7.22388,2172
7.22962,1270
7.23533,2112
7.24105,1721
7.24678,1152
7.2525,977
7.25822,1113
7.26395,1517
7.26967,1281
7.27538,1172
7.28112,928
7.28683,1561
7.29255,2116
7.29827,3647
7.304,3121
7.30972,3776
7.31543,3042
7.32117,2744
7.32688,1916
7.3326,996
7.33833,2036
7.34405,1197
7.34977,804
7.3555,844
7.36122,802
7.36693,809
7.37267,1058
7.37838,709
7.3841,689
7.38983,679
7.39555,453
7.40127,921
7.407,507
7.41272,875
7.41843,982
7.42415,416
7.42988,542
7.4356,225
7.44132,359
7.44705,663
7.45277,749
7.45848,510
7.46422,497
7.46993,504
7.47565,580
7.48138,776
7.4871,712
7.49282,745
7.49855,584
7.50427,535
7.50998,1051
7.51572,805
7.52143,469
7.52715,556
7.53288,688
7.5386,432
7.54432,704
7.55003,358
7.55577,714
7.56148,566
7.5672,683
7.57293,731
7.57865,534
7.58437,729
7.5901,457
7.59582,413
7.60153,1173
7.60727,1101
7.61298,889
7.6187,714
7.62443,779
7.63015,680
7.63587,805
7.6416,984
7.64732,615
7.65303,531
7.65877,617
7.66448,894
7.6702,935
7.67592,772
7.68165,973
7.68737,964
7.69308,1225
7.69882,1061
7.70453,1274
7.71025,988
7.71598,1046
7.7217,564
7.72742,1085
7.73315,615
7.73887,1359
7.74458,932
7.75032,635
7.75603,774
7.76175,488
7.76748,842
7.7732,729
7.77892,766
7.78465,1194
7.79037,517
7.79608,522
7.8018,725
7.80753,1248
7.81325,920
7.81897,802
7.8247,490
7.83042,1053
7.83613,930
7.84187,1258
7.84758,1098
7.8533,405
7.85903,1288
7.86475,646
7.87047,981
7.8762,1104
7.88192,968
7.88763,495
7.89337,912
7.89908,690
7.9048,647
7.91053,804
7.91625,1096
7.92197,1248
7.92768,975
7.93342,1159
7.93913,824
7.94485,1471
7.95058,794
7.9563,632
7.96202,1138
7.96775,1054
7.97347,1043
7.97918,1048
7.98492,685
7.99063,1007
7.99635,1122
8.00208,1240
8.0078,1521
8.01352,1034
8.01925,914
8.02497,1207
8.03068,1302
8.03642,1892
8.04213,1116
8.04785,1347
8.05357,1085
8.0593,1085
8.06502,1169
8.07073,1230
8.07647,1271
8.08218,988
8.0879,1082
8.09363,571
8.09935,869
8.10507,969
8.1108,911
8.11652,711
8.12223,1099
8.12797,1342
8.13368,829
8.1394,875
8.14513,975
8.15085,1419
8.15657,1605
8.1623,1396
8.16802,1416
8.17373,1664
8.17945,1093
8.18518,1637
8.1909,1389
8.19662,1073
8.20235,1519
8.20807,1100
8.21378,2006
8.21952,823
8.22523,1391
8.23095,1162
8.23668,1303
8.2424,1130
8.24812,910
8.25385,496
8.25957,1534
8.26528,1178
8.27102,1207
8.27673,1617
8.28245,840
8.28818,1419
8.2939,1008
8.29962,1740
8.30533,1165
8.31107,944
8.31678,861
8.3225,1319
8.32823,733
8.33395,1819
8.33967,1563
8.3454,561
8.35112,2026
8.35683,1512
8.36257,1555
8.36828,1215
8.374,1430
8.37973,930
8.38545,1126
8.39117,752
8.3969,1075
8.40262,1842
8.40833,1886
8.41407,1441
8.41978,678
8.4255,1322
8.43122,1414
8.43695,1285
8.44267,1788
8.44838,1996
8.45412,867
8.45983,1088
8.46555,1305
8.47128,1657
8.477,1942
8.48272,645
8.48845,1200
8.49417,532
8.49988,973
8.50562,1473
8.51133,1276
8.51705,784
8.52278,1507
8.5285,1058
8.53422,1306
8.53995,1037
8.54567,1495
8.55138,1316
8.5571,1334
8.56283,1329
8.56855,1284
8.57427,1424
8.58,1248
8.58572,1401
8.59143,1495
8.59717,1258
8.60288,1294
8.6086,1298
8.61433,1710
8.62005,1848
8.62577,1122
8.6315,1296
8.63722,1561
8.64293,1966
8.64867,1353
8.65438,1615
8.6601,856
8.66583,1190
8.67155,1274
8.67727,2172
8.68298,615
8.68872,1623
8.69443,533
8.70015,1375
8.70588,1362
8.7116,1487
8.71732,1909
8.72305,1808
8.72877,1529
8.73448,1626
8.74022,1781
8.74593,1536
8.75165,1408
8.75738,1750
8.7631,1316
8.76882,1935
8.77455,1949
8.78027,1743
8.78598,1168
8.79172,1164
8.79743,1753
8.80315,1474
8.80887,1607
8.8146,1922
8.82032,1954
8.82603,2044
8.83177,1968
8.83748,1856
8.8432,2304
8.84893,2314
8.85465,1766
8.86037,2005
8.8661,1815
8.87182,2199
8.87753,1207
8.88327,2948
8.88898,1641
8.8947,2466
8.90043,2375
8.90615,1755
8.91187,2395
8.9176,2191
8.92332,1802
8.92903,2211
8.93475,1434
8.94048,1227
8.9462,1218
8.95192,1796
8.95765,1593
8.96337,1821
8.96908,2041
8.97482,3384
8.98053,5168
8.98625,6659
8.99198,6286
8.9977,5372
9.00342,3297
9.00915,2459
9.01487,1884
9.02058,1360
9.02632,1903
9.03203,1952
9.03775,1897
9.04348,1807
9.0492,2243
9.05492,1881
9.06063,2419
9.06637,2237
9.07208,2359
9.0778,2128
9.08353,2348
9.08925,2239
9.09497,1603
9.1007,2250
9.10642,2260
9.11213,2560
9.11787,1329
9.12358,1000
9.1293,1384
9.13503,1973
9.14075,2066
9.14647,2421
9.1522,2027
9.15792,2650
9.16363,2373
9.16937,1706
9.17508,1496
9.1808,2394
9.18652,1975
9.19225,1995
9.19797,2511
9.20368,2292
9.20942,1590
9.21513,2110
9.22085,2131
9.22658,1988
9.2323,1427
9.23802,2351
9.24375,1826
9.24947,1501
9.25518,1897
9.26092,2010
9.26663,2028
9.27235,2102
9.27808,2669
9.2838,1706
9.28952,1619
9.29525,1231
9.30097,2048
9.30668,2210
9.3124,1208
9.31813,2119
9.32385,1967
9.32957,2147
9.3353,1339
9.34102,1438
9.34673,2295
9.35247,1603
9.35818,1517
9.3639,1721
9.36963,1706
9.37535,1654
9.38107,1845
9.3868,2195
9.39252,1760
9.39823,2051
9.40397,2143
9.40968,1898
9.4154,2301
9.42113,1822
9.42685,1803
9.43257,2049
9.4383,2502
9.44402,2726
9.44973,2160
9.45545,2076
9.46118,1854
9.4669,2125
9.47262,2178
9.47835,1678
9.48407,2596
9.48978,2588
9.49552,2848
9.50123,1428
9.50695,1866
9.51268,1991
9.5184,2046
9.52412,1765
9.52985,2892
9.53557,2506
9.54128,2316
9.54702,2632
9.55273,2887
9.55845,1890
9.56418,2330
9.5699,2048
9.57562,2241
9.58133,2097
9.58707,2591
9.59278,1758
9.5985,2674
9.60423,2663
9.60995,1444
9.61567,2066
9.6214,2435
9.62712,1883
9.63283,1879
9.63857,1994
9.64428,1953
9.65,1893
9.65573,2298
9.66145,2484
9.66717,2161
9.6729,2096
9.67862,1932
9.68433,2243
9.69007,1797
9.69578,2435
9.7015,2979
9.70722,1780
9.71295,2511
9.71867,2406
9.72438,2122
9.73012,1881
9.73583,1967
9.74155,2408
9.74728,2518
9.753,2178
9.75872,2497
9.76445,2081
9.77017,2508
9.77588,2491
9.78162,3044
9.78733,2509
9.79305,2098
9.79878,2910
9.8045,1229
9.81022,2109
9.81595,2809
9.82167,2385
9.82738,2534
9.8331,2112
9.83883,2239
9.84455,1874
9.85027,2657
9.856,2891
9.86172,2276
9.86743,1535
9.87317,2349
9.87888,2124
9.8846,2547
9.89033,2227
9.89605,2201
9.90177,2508
9.9075,2689
9.91322,2157
9.91893,2160
9.92467,1999
9.93038,1450
9.9361,2155
9.94183,2575
9.94755,2063
9.95327,2818
9.95898,3145
9.96472,2330
9.97043,2449
9.97615,3085
9.98188,3069
9.9876,3047
9.99332,2148
9.99905,2385
10.0048,2650
10.0105,1415
10.0162,2192
10.0219,2804
10.0277,1712
10.0334,2801
10.0391,2658
10.0448,2335
10.0506,3088
10.0563,2708
10.062,1854
10.0677,2744
10.0734,2329
10.0792,2178
10.0849,2297
10.0906,2441
10.0963,2863
10.102,2016
10.1078,2029
10.1135,2581
10.1192,2191
10.1249,2096
10.1307,1953
10.1364,2279
10.1421,2805
10.1478,2324
10.1535,2347
10.1593,2732
10.165,2961
10.1707,2496
10.1764,2684
10.1822,2411
10.1879,2560
10.1936,2085
10.1993,2332
10.205,2386
10.2108,2007
10.2165,2071
10.2222,2669
10.2279,1835
10.2337,2189
10.2394,2894
10.2451,2037
10.2508,2625
10.2565,1544
10.2623,2905
10.268,1655
10.2737,2628
10.2794,2144
10.2852,2428
10.2909,2233
10.2966,2378
10.3023,2420
10.308,2410
10.3138,2243
10.3195,2952
10.3252,2070
10.3309,2241
10.3366,2299
10.3424,2653
10.3481,2070
10.3538,2528
10.3595,2436
10.3653,2665
10.371,2497
10.3767,2972
10.3824,2366
10.3881,2038
10.3939,2878
10.3996,2828
10.4053,2080
10.411,3826
10.4168,4465
10.4225,5512
10.4282,6011
10.4339,5175
10.4396,4370
10.4454,2899
10.4511,2577
10.4568,2045
10.4625,3000
10.4683,2877
10.474,2491
10.4797,2410
10.4854,2309
10.4911,2282
10.4969,2309
10.5026,2830
10.5083,2834
10.514,2571
10.5198,3362
10.5255,2154
10.5312,2304
10.5369,2228
10.5426,2863
10.5484,2085
10.5541,2470
10.5598,2803
10.5655,2667
10.5713,3137
10.577,2786
10.5827,2416
10.5884,2622
10.5941,2524
10.5999,3013
10.6056,2851
10.6113,2433
10.617,2950
10.6227,3399
10.6285,3643
10.6342,7866
10.6399,12600
10.6456,18642
10.6514,20013
10.6571,14452
10.6628,9298
10.6685,5805
10.6742,3865
10.68,2467
10.6857,2737
10.6914,3523
10.6971,3096
10.7029,2351
10.7086,3271
10.7143,3206
10.72,1972
10.7257,3493
10.7315,2277
10.7372,1962
10.7429,2721
10.7486,2814
10.7544,2966
10.7601,2619
10.7658,2199
10.7715,2647
10.7772,2361
10.783,2676
10.7887,2429
10.7944,3169
10.8001,2475
10.8059,2326
10.8116,2227
10.8173,2589
10.823,2591
10.8287,3435
10.8345,3056
10.8402,2401
10.8459,3007
10.8516,2305
10.8573,2752
10.8631,2740
10.8688,3081
10.8745,3486
10.8802,3451
10.886,5630
10.8917,7173
10.8974,6278
10.9031,5983
10.9088,4017
10.9146,3813
10.9203,3034
10.926,3409
10.9317,2833
10.9375,2661
10.9432,3049
10.9489,2852
10.9546,3178
10.9603,2832
10.9661,1911
10.9718,3355
10.9775,2475
10.9832,2836
10.989,3151
10.9947,3567
11.0004,3602
11.0061,3914
11.0118,4743
11.0176,4095
11.0233,3543
11.029,3809
11.0347,3748
11.0405,4322
11.0462,3810
11.0519,4698
11.0576,4431
11.0633,3870
11.0691,3678
11.0748,4065
11.0805,3728
11.0862,3876
11.0919,4200
11.0977,3747
11.1034,3345
11.1091,4342
11.1148,4448
11.1206,6380
11.1263,8567
11.132,14022
11.1377,15993
11.1434,12365
11.1492,9900
11.1549,14302
11.1606,25574
11.1663,40254
11.1721,47994
11.1778,47545
11.1835,39823
11.1892,34418
11.1949,28828
11.2007,23154
11.2064,21068
11.2121,18705
11.2178,16509
11.2236,16240
11.2293,15492
11.235,13692
11.2407,12364
11.2464,11118
11.2522,11628
11.2579,10614
11.2636,10687
11.2693,10357
11.2751,10328
11.2808,9348
11.2865,10454
11.2922,8958
11.2979,8252
11.3037,8337
11.3094,8339
11.3151,8088
11.3208,7939
11.3266,7659
11.3323,6826
11.338,8051
11.3437,7325
11.3494,6407
11.3552,6474
11.3609,7017
11.3666,6284
11.3723,6294
11.378,6336
11.3838,6419
11.3895,6409
11.3952,6799
11.4009,5787
11.4067,5242
11.4124,5845
11.4181,5726
11.4238,5822
11.4295,5643
11.4353,5505
11.441,6768
11.4467,6811
11.4524,7251
11.4582,7120
11.4639,5695
11.4696,4586
11.4753,5886
11.481,6052
11.4868,5560
11.4925,4696
11.4982,5847
11.5039,4143
11.5097,5006
11.5154,5511
11.5211,4847
11.5268,5583
11.5325,5290
11.5383,4602
11.544,5242
11.5497,4843
11.5554,4338
11.5612,5578
11.5669,4594
11.5726,4213
11.5783,4672
11.584,4544
11.5898,4401
11.5955,5336
11.6012,4203
11.6069,4893
11.6126,4787
11.6184,4745
11.6241,4358
11.6298,3685
11.6355,4482
11.6413,5261
11.647,5113
11.6527,5941
11.6584,5021
11.6641,5345
11.6699,5058
11.6756,5034
11.6813,4232
11.687,4065
11.6928,5179
11.6985,4981
11.7042,6612
11.7099,6816
11.7156,7285
11.7214,5730
11.7271,5063
11.7328,4373
11.7385,5070
11.7443,4085
11.75,4439
11.7557,4729
11.7614,4552
11.7671,4107
11.7729,4342
11.7786,4569
11.7843,3614
11.79,4419
11.7958,3563
11.8015,3788
11.8072,4341
11.8129,4552
11.8186,4477
11.8244,4074
11.8301,4249
11.8358,3938
11.8415,4576
11.8472,4179
11.853,4323
11.8587,3846
11.8644,4430
11.8701,4383
11.8759,3810
11.8816,3833
11.8873,4232
11.893,3928
11.8987,4193
11.9045,4524
11.9102,3534
11.9159,4099
11.9216,4053
11.9274,4603
11.9331,3857
11.9388,4585
11.9445,4923
11.9502,3949
11.956,4768
11.9617,3913
11.9674,4439
11.9731,5059
11.9789,4863
11.9846,4078
11.9903,4721
11.996,3447
12.0017,3762
12.0075,5004
12.0132,3523
12.0189,3909
12.0246,4604
12.0304,3899
12.0361,3442
12.0418,4112
12.0475,4152
12.0532,4528
12.059,4483
12.0647,5368
12.0704,4525
12.0761,5985
12.0819,5443
12.0876,6052
12.0933,5876
12.099,7196
12.1047,6631
12.1105,6050
12.1162,6222
12.1219,4959
12.1276,4552
12.1333,5006
12.1391,4639
12.1448,4669
12.1505,4790
12.1562,4477
12.162,4151
12.1677,4168
12.1734,4597
12.1791,4804
12.1848,4194
12.1906,4976
12.1963,3093
12.202,4932
12.2077,4742
12.2135,4740
12.2192,4575
12.2249,4157
12.2306,5231
12.2363,5047
12.2421,5060
12.2478,4849
12.2535,5106
12.2592,4875
12.265,5075
12.2707,5500
12.2764,4529
12.2821,5137
12.2878,5328
12.2936,4525
12.2993,4966
12.305,5165
12.3107,5039
12.3165,4780
12.3222,5115
12.3279,5229
12.3336,4748
12.3393,5696
12.3451,4934
12.3508,5119
12.3565,5548
12.3622,5484
12.3679,4092
12.3737,4914
12.3794,4711
12.3851,5673
12.3908,5557
12.3966,5027
12.4023,5305
12.408,5023
12.4137,5321
12.4194,5738
12.4252,4963
12.4309,5179
12.4366,5830
12.4423,4962
12.4481,5683
12.4538,6545
12.4595,6744
12.4652,7943
12.4709,9893
12.4767,9881
12.4824,9366
12.4881,9196
12.4938,8911
12.4996,9996
12.5053,9861
12.511,11757
12.5167,15822
12.5224,24172
12.5282,37121
12.5339,46590
12.5396,52424
12.5453,48591
12.5511,46917
12.5568,45405
12.5625,43154
12.5682,39356
12.5739,36964
12.5797,35213
12.5854,31364
12.5911,30044
12.5968,27566
12.6025,25767
12.6083,22886
12.614,22391
12.6197,21314
12.6254,20039
12.6312,19623
12.6369,18637
12.6426,17507
12.6483,16552
12.654,17447
12.6598,15602
12.6655,16759
12.6712,14650
12.6769,14429
12.6827,14848
12.6884,14634
12.6941,14991
12.6998,14296
12.7055,16626
12.7113,16748
12.717,19754
12.7227,20239
12.7284,22730
12.7342,21607
12.7399,21601
12.7456,18840
12.7513,18019
12.757,17633
12.7628,17904
12.7685,16466
12.7742,16406
12.7799,15765
12.7857,14600
12.7914,13729
12.7971,12735
12.8028,12413
12.8085,12755
12.8143,12660
12.82,12716
12.8257,11557
12.8314,10843
12.8372,10985
12.8429,12043
12.8486,10952
12.8543,10502
12.86,11155
12.8658,10421
12.8715,10809
12.8772,10867
12.8829,12241
12.8886,13876
12.8944,13526
12.9001,12159
12.9058,10682
12.9115,9761
12.9173,9559
12.923,10401
12.9287,9215
12.9344,9611
12.9401,10181
12.9459,8277
12.9516,9753
12.9573,9647
12.963,9357
12.9688,8793
12.9745,9804
12.9802,9610
12.9859,9430
12.9916,8874
12.9974,9423
13.0031,9120
13.0088,8490
13.0145,8135
13.0203,7888
13.026,8944
13.0317,7874
13.0374,9136
13.0431,7955
13.0489,8798
13.0546,7883
13.0603,8435
13.066,8073
13.0718,8866
13.0775,8351
13.0832,8289
13.0889,7666
13.0946,7427
13.1004,8290
13.1061,8535
13.1118,7504
13.1175,8795
13.1232,8239
13.129,7804
13.1347,8778
13.1404,8603
13.1461,8710
13.1519,8207
13.1576,7616
13.1633,7811
13.169,8617
13.1747,7026
13.1805,7650
13.1862,8576
13.1919,8288
13.1976,8578
13.2034,7616
13.2091,8833
13.2148,6786
13.2205,7694
13.2262,8057
13.232,6848
13.2377,9261
13.2434,8358
13.2491,8588
13.2549,8462
13.2606,8042
13.2663,7494
13.272,8210
13.2777,7312
13.2835,8318
13.2892,8192
13.2949,8033
13.3006,7263
13.3064,7426
13.3121,7801
13.3178,8687
13.3235,8410
13.3292,7623
13.335,8115
13.3407,8850
13.3464,8472
13.3521,9332
13.3579,7600
13.3636,8327
13.3693,8034
13.375,8006
13.3807,8136
13.3865,8145
13.3922,8269
13.3979,8725
13.4036,8409
13.4093,8247
13.4151,8070
13.4208,10113
13.4265,8145
13.4322,9370
13.438,8679
13.4437,9201
13.4494,8655
13.4551,8973
13.4608,8882
13.4666,8746
13.4723,8931
13.478,8401
13.4837,8837
13.4895,8626
13.4952,8487
13.5009,9833
13.5066,8630
13.5123,8546
13.5181,9632
13.5238,8423
13.5295,7618
13.5352,9019
13.541,8647
13.5467,7868
13.5524,8422
13.5581,7959
13.5638,7638
13.5696,7805
13.5753,9043
13.581,8393
13.5867,8888
13.5925,8409
13.5982,7875
13.6039,9072
13.6096,7569
13.6153,8157
13.6211,8044
13.6268,10328
13.6325,7808
13.6382,8697
13.6439,8930
13.6497,8749
13.6554,8520
13.6611,7612
13.6668,8154
13.6726,8491
13.6783,9117
13.684,9033
13.6897,8903
13.6954,8085
13.7012,9123
13.7069,9127
13.7126,8579
13.7183,8828
13.7241,9293
13.7298,8383
13.7355,8720
13.7412,9361
13.7469,8960
13.7527,8999
13.7584,9017
13.7641,8552
13.7698,7393
13.7756,7332
13.7813,7891
13.787,8841
13.7927,9456
13.7984,8279
13.8042,7724
13.8099,8958
13.8156,8287
13.8213,8497
13.8271,8162
13.8328,9322
13.8385,8942
13.8442,8785
13.8499,8265
13.8557,7951
13.8614,7839
13.8671,8952
13.8728,8567
13.8785,8917
13.8843,9171
13.89,8261
13.8957,8609
13.9014,7851
13.9072,8323
13.9129,7760
13.9186,8245
13.9243,7145
13.93,8680
13.9358,9274
13.9415,8584
13.9472,9468
13.9529,10662
13.9587,11708
13.9644,11565
13.9701,10317
13.9758,9985
13.9815,9926
13.9873,8164
13.993,7867
13.9987,8650
14.0044,9577
14.0102,8332
14.0159,8558
14.0216,8944
14.0273,8785
14.033,7488
14.0388,8962
14.0445,9074
14.0502,8554
14.0559,8265
14.0617,9522
14.0674,8451
14.0731,8705
14.0788,9923
14.0845,8550
14.0903,8547
14.096,8685
14.1017,8958
14.1074,9309
14.1132,8225
14.1189,8804
14.1246,9412
14.1303,8791
14.136,8708
14.1418,8730
14.1475,7882
14.1532,9180
14.1589,8624
14.1646,8744
14.1704,9361
14.1761,9275
14.1818,8514
14.1875,9286
14.1933,8519
14.199,9067
14.2047,8321
14.2104,7866
14.2161,8442
14.2219,8483
14.2276,8793
14.2333,8678
14.239,7756
14.2448,8935
14.2505,8661
14.2562,9674
14.2619,9335
14.2676,8667
14.2734,9372
14.2791,8625
14.2848,9078
14.2905,9292
14.2963,9768
14.302,9151
14.3077,9738
14.3134,8853
14.3191,9490
14.3249,8593
14.3306,9753
14.3363,9301
14.342,7977
14.3478,9588
14.3535,8730
14.3592,8091
14.3649,8473
14.3706,8992
14.3764,8779
14.3821,9878
14.3878,9050
14.3935,9694
14.3992,9832
14.405,10189
14.4107,8866
14.4164,8907
14.4221,9524
14.4279,8540
14.4336,9273
14.4393,9245
14.445,8662
14.4507,9802
14.4565,9852
14.4622,10474
14.4679,9389
14.4736,9679
14.4794,10022
14.4851,9638
14.4908,9247
14.4965,10550
14.5022,10306
14.508,10892
14.5137,9735
14.5194,11012
14.5251,9213
14.5309,9926
14.5366,9147
14.5423,10185
14.548,9199
14.5537,9636
14.5595,10175
14.5652,10748
14.5709,9723
14.5766,9118
14.5824,9954
14.5881,10005
14.5938,10982
14.5995,10136
14.6052,9139
14.611,10053
14.6167,10274
14.6224,11105
14.6281,10139
14.6338,10078
14.6396,11248
14.6453,10065
14.651,9983
14.6567,10940
14.6625,11364
14.6682,10280
14.6739,11141
14.6796,11475
14.6853,10024
14.6911,10403
14.6968,10309
14.7025,10357
14.7082,10592
14.714,9508
14.7197,11380
14.7254,11281
14.7311,10996
14.7368,10518
14.7426,10518
14.7483,10987
14.754,10671
14.7597,10712
14.7655,9592
14.7712,11791
14.7769,10604
14.7826,10751
14.7883,10986
14.7941,11379
14.7998,10218
14.8055,12051
14.8112,9717
14.817,12735
14.8227,10737
14.8284,11597
14.8341,12314
14.8398,12047
14.8456,11866
14.8513,11229
14.857,11010
14.8627,10895
14.8685,12247
14.8742,11441
14.8799,12657
14.8856,12791
14.8913,11100
14.8971,13010
14.9028,13484
14.9085,13784
14.9142,14002
14.9199,13548
14.9257,12363
14.9314,14455
14.9371,15048
14.9428,15283
14.9486,15439
14.9543,15775
14.96,14709
14.9657,13085
14.9714,12404
14.9772,12775
14.9829,11947
14.9886,12053
14.9943,14141
15.0001,14829
15.0058,14544
15.0115,12946
15.0172,13245
15.0229,12813
15.0287,13312
15.0344,12955
15.0401,13303
15.0458,12321
15.0516,13219
15.0573,13598
15.063,13602
15.0687,13630
15.0744,12894
15.0802,13181
15.0859,12248
15.0916,12430
15.0973,12772
15.1031,12497
15.1088,12002
15.1145,13498
15.1202,12095
15.1259,14498
15.1317,13648
15.1374,13561
15.1431,12797
15.1488,13433
15.1545,13062
15.1603,13533
15.166,14419
15.1717,14191
15.1774,13785
15.1832,14451
15.1889,13688
15.1946,14789
15.2003,14253
15.206,12408
15.2118,13390
15.2175,13888
15.2232,13766
15.2289,13102
15.2347,13168
15.2404,13354
15.2461,13564
15.2518,14866
15.2575,14911
15.2633,14294
15.269,14921
15.2747,16162
15.2804,15710
15.2862,15479
15.2919,14719
15.2976,13438
15.3033,13737
15.309,14501
15.3148,15597
15.3205,15111
15.3262,15651
15.3319,15562
15.3377,14940
15.3434,15417
15.3491,15612
15.3548,15045
15.3605,16401
15.3663,15250
15.372,15952
15.3777,16074
15.3834,16918
15.3891,16424
15.3949,14918
15.4006,16152
15.4063,15699
15.412,15330
15.4178,16612
15.4235,16059
15.4292,16484
15.4349,14475
15.4406,16765
15.4464,14900
15.4521,16501
15.4578,16214
15.4635,17532
15.4693,17373
15.475,16692
15.4807,15957
15.4864,17405
15.4921,16783
15.4979,16776
15.5036,16466
15.5093,17671
15.515,17400
15.5208,16814
15.5265,15778
15.5322,17531
15.5379,19148
15.5436,16446
15.5494,18729
15.5551,16923
15.5608,18123
15.5665,17241
15.5723,18136
15.578,16692
15.5837,17981
15.5894,16908
15.5951,19192
15.6009,18414
15.6066,17133
15.6123,17320
15.618,17874
15.6238,17166
15.6295,18282
15.6352,19107
15.6409,19340
15.6466,17377
15.6524,19965
15.6581,18133
15.6638,18074
15.6695,19851
15.6752,19700
15.681,19128
15.6867,19964
15.6924,18764
15.6981,20216
15.7039,19697
15.7096,19138
15.7153,17575
15.721,19536
15.7267,18600
15.7325,19634
15.7382,19126
15.7439,18623
15.7496,18307
15.7554,19814
15.7611,19106
15.7668,20324
15.7725,20633
15.7782,20225
15.784,20450
15.7897,20483
15.7954,20652
15.8011,20823
15.8069,21095
15.8126,22573
15.8183,21719
15.824,22344
15.8297,20627
15.8355,22747
15.8412,21443
15.8469,20285
15.8526,22480
15.8584,21755
15.8641,21855
15.8698,22740
15.8755,25671
15.8812,26409
15.887,25350
15.8927,24621
15.8984,23077
15.9041,22289
15.9098,22786
15.9156,22846
15.9213,21960
15.927,23697
15.9327,21222
15.9385,22078
15.9442,24424
15.9499,22080
15.9556,25054
15.9613,21761
15.9671,22417
15.9728,24019
15.9785,22438
15.9842,23529
15.99,24624
15.9957,25698
16.0014,23257
16.0071,24734
16.0128,24826
16.0186,25319
16.0243,25182
16.03,27345
16.0357,26417
16.0415,24199
16.0472,26385
16.0529,26777
16.0586,24791
16.0643,25692
16.07,27068
16.0758,25602
16.0815,26661
16.0872,24900
16.0929,25353
16.0987,25963
16.1044,26812
16.1101,26171
16.1158,26275
16.1215,26988
16.1273,26750
16.133,26896
16.1387,27136
16.1444,27331
16.1502,25072
16.1559,26606
16.1616,27096
16.1673,26869
16.1731,27884
16.1788,29343
16.1845,28716
16.1902,27257
16.1959,27951
16.2017,27056
16.2074,28241
16.2131,27417
16.2188,27076
16.2246,28293
16.2303,28562
16.236,28655
16.2417,27697
16.2474,27258
16.2532,28396
16.2589,29521
16.2646,27916
16.2703,28805
16.2761,29336
16.2818,27457
16.2875,29045
16.2932,30734
16.2989,30058
16.3046,27836
16.3104,29091
16.3161,30071
16.3218,30180
16.3275,29109
16.3333,29265
16.339,31359
16.3447,30822
16.3504,30289
16.3562,30378
16.3619,29235
16.3676,30948
16.3733,29817
16.379,34437
16.3848,30676
16.3905,30254
16.3962,30915
16.4019,32964
16.4077,32732
16.4134,30556
16.4191,31394
16.4248,31686
16.4305,32361
16.4363,31511
16.442,32932
16.4477,33060
16.4534,33169
16.4592,33198
16.4649,33468
16.4706,31755
16.4763,33145
16.482,32530
16.4878,33894
16.4935,32841
16.4992,33581
16.5049,32552
16.5106,33770
16.5164,34890
16.5221,35248
16.5278,35684
16.5335,35149
16.5392,34523
16.545,35447
16.5507,36605
16.5564,35545
16.5621,36974
16.5679,37005
16.5736,34769
16.5793,35704
16.585,35812
16.5908,36076
16.5965,34296
16.6022,37551
16.6079,36186
16.6137,35871
16.6194,37520
16.6251,38183
16.6308,37381
16.6365,37174
16.6423,38669
16.648,39019
16.6537,39074
16.6594,37245
16.6651,39374
16.6709,39436
16.6766,40418
16.6823,38483
16.688,38393
16.6938,37711
16.6995,39855
16.7052,38846
16.7109,38487
16.7166,40338
16.7224,39571
16.7281,41822
16.7338,39272
16.7395,40675
16.7452,43274
16.751,40973
16.7567,43989
16.7624,44846
16.7681,41258
16.7738,41652
16.7796,40059
16.7853,41186
16.791,40040
16.7967,39993
16.8025,40840
16.8082,40678
16.8139,40204
16.8196,44062
16.8254,41565
16.8311,42538
16.8368,44432
16.8425,44941
16.8483,42220
16.854,43809
16.8597,43656
16.8654,43525
16.8711,43620
16.8769,44537
16.8826,42947
16.8883,42427
16.894,44756
16.8997,44689
16.9055,44956
16.9112,44319
16.9169,44461
16.9226,45269
16.9283,44383
16.9341,46967
16.9398,45373
16.9455,45501
16.9512,45133
16.957,43636
16.9627,45717
16.9684,45991
16.9741,45082
16.9798,46653
16.9856,47316
16.9913,45664
16.997,47512
17.0027,48467
17.0085,48826
17.0142,46642
17.0199,47833
17.0256,47508
17.0314,47836
17.0371,49047
17.0428,49122
17.0485,49335
17.0542,50064
17.06,50193
17.0657,49688
17.0714,49453
17.0771,47665
17.0829,50524
17.0886,48608
17.0943,49878
17.1,49255
17.1057,50453
17.1115,50963
17.1172,50870
17.1229,50275
17.1286,49499
17.1344,48838
17.1401,49412
17.1458,50195
17.1515,51441
17.1572,50145
17.1629,50396
17.1687,49365
17.1744,49512
17.1801,51153
17.1858,51132
17.1916,51609
17.1973,50925
17.203,51993
17.2087,52750
17.2144,51238
17.2202,49929
17.2259,52751
17.2316,54259
17.2373,51014
17.2431,51298
17.2488,52227
17.2545,52984
17.2602,54030
17.266,53215
17.2717,54240
17.2774,52198
17.2831,54443
17.2888,54394
17.2946,52474
17.3003,53626
17.306,53705
17.3117,53485
17.3175,51789
17.3232,53920
17.3289,55198
17.3346,53746
17.3403,55274
17.3461,57089
17.3518,54108
17.3575,52961
17.3632,54887
17.369,55434
17.3747,56015
17.3804,54993
17.3861,55150
17.3918,56911
17.3975,55529
17.4033,57752
17.409,54436
17.4147,57764
17.4204,55045
17.4262,55778
17.4319,54788
17.4376,56091
17.4433,54906
17.4491,54972
17.4548,56191
17.4605,56131
17.4662,56533
17.4719,59391
17.4777,54727
17.4834,58057
17.4891,57416
17.4948,59641
17.5006,55982
17.5063,58784
17.512,56706
17.5177,55451
17.5234,58224
17.5292,57196
17.5349,57233
17.5406,57788
17.5463,58645
17.5521,55227
17.5578,55345
17.5635,58000
17.5692,57946
17.5749,57112
17.5807,59036
17.5864,60518
17.5921,60333
17.5978,60276
17.6036,61897
17.6093,62480
17.615,62446
17.6207,60449
17.6264,61533
17.6321,59342
17.6379,58674
17.6436,57836
17.6493,57272
17.655,59846
17.6608,59970
17.6665,58688
17.6722,60114
17.6779,60748
17.6837,61371
17.6894,56787
17.6951,58881
17.7008,58615
17.7065,60370
17.7123,59073
17.718,59621
17.7237,57682
17.7294,60448
17.7352,60893
17.7409,60237
17.7466,61086
17.7523,59306
17.758,58456
17.7638,58965
17.7695,59146
17.7752,62017
17.7809,59254
17.7867,62809
17.7924,62508
17.7981,59714
17.8038,58582
17.8095,59655
17.8153,60524
17.821,60230
17.8267,60269
17.8324,62077
17.8382,59104
17.8439,59865
17.8496,60580
17.8553,60027
17.861,59818
17.8668,58370
17.8725,59403
17.8782,61583
17.8839,61258
17.8897,59406
17.8954,61862
17.9011,60580
17.9068,61408
17.9125,60562
17.9183,61296
17.924,61416
17.9297,61577
17.9354,63116
17.9411,64321
17.9469,63057
17.9526,61334
17.9583,63828
17.964,60734
17.9698,61455
17.9755,62515
17.9812,61607
17.9869,61113
17.9926,63184
