C:\MSDCHEM\1\DATA\JAMES C\20180125 LACTONE WITH BME AND HYDROXYLAMINE\C 7hr.d 25 Jan 18  10:26 pm
Start of data points
3.0925,10905
3.09822,10909
3.10393,12271
3.10967,12059
3.11538,12628
3.1211,10490
3.12683,11743
3.13255,10580
3.13827,11899
3.144,9815
3.14972,11491
3.15543,10434
3.16117,9823
3.16688,9743
3.1726,10549
3.17833,10206
3.18405,11445
3.18977,10075
3.1955,9506
3.20122,10794
3.20693,9737
3.21267,10936
3.21838,10091
3.2241,10550
3.22982,10428
3.23555,11045
3.24127,10786
3.24698,9824
3.25272,10074
3.25843,11249
3.26415,9481
3.26988,9396
3.2756,9523
3.28132,8450
3.28705,9167
3.29277,8595
3.29848,9936
3.30422,9712
3.30993,8223
3.31565,9579
3.32138,9547
3.3271,8158
3.33282,7751
3.33855,7538
3.34427,8029
3.34998,8298
3.3557,7600
3.36143,8932
3.36715,8098
3.37287,6578
3.3786,7739
3.38432,7375
3.39003,7231
3.39577,8824
3.40148,6692
3.4072,7927
3.41293,7695
3.41865,7211
3.42437,6221
3.4301,6719
3.43582,7762
3.44153,6856
3.44727,7301
3.45298,6726
3.4587,7683
3.46443,6313
3.47015,7078
3.47587,7628
3.48158,6661
3.48732,6402
3.49303,5343
3.49875,6392
3.50448,6079
3.5102,6176
3.51592,6953
3.52165,7311
3.52737,6128
3.53308,6748
3.53882,6596
3.54453,5932
3.55025,5655
3.55598,6248
3.5617,6822
3.56742,6026
3.57315,6178
3.57887,6474
3.58458,6093
3.59032,6160
3.59603,5883
3.60175,6530
3.60747,5789
3.6132,5320
3.61892,5066
3.62463,5664
3.63037,6050
3.63608,5339
3.6418,5093
3.64753,5564
3.65325,5752
3.65897,5195
3.6647,5205
3.67042,4997
3.67613,5111
3.68187,5148
3.68758,5024
3.6933,4319
3.69903,4451
3.70475,4556
3.71047,5265
3.7162,5685
3.72192,5218
3.72763,5595
3.73335,4664
3.73908,4955
3.7448,5041
3.75052,4644
3.75625,5705
3.76197,4937
3.76768,5113
3.77342,3895
3.77913,4703
3.78485,4530
3.79058,4767
3.7963,4309
3.80202,4735
3.80775,4686
3.81347,4990
3.81918,4500
3.82492,5751
3.83063,4287
3.83635,4394
3.84208,4731
3.8478,4891
3.85352,3924
3.85923,4584
3.86497,4072
3.87068,4431
3.8764,4788
3.88213,4295
3.88785,3926
3.89357,4264
3.8993,4227
3.90502,4017
3.91073,4264
3.91647,4519
3.92218,4331
3.9279,4018
3.93363,3621
3.93935,4096
3.94507,3887
3.9508,4001
3.95652,4209
3.96223,3632
3.96797,3746
3.97368,3616
3.9794,5005
3.98512,4509
3.99085,3160
3.99657,4064
4.00228,4426
4.00802,3572
4.01373,3546
4.01945,3603
4.02518,2754
4.0309,3779
4.03662,3009
4.04235,3437
4.04807,3128
4.05378,2916
4.05952,3584
4.06523,3888
4.07095,3740
4.07668,3991
4.0824,2927
4.08812,3892
4.09385,3891
4.09957,3543
4.10528,3354
4.111,4164
4.11673,3310
4.12245,3683
4.12817,3876
4.1339,3757
4.13962,3098
4.14533,3201
4.15107,2744
4.15678,2913
4.1625,3837
4.16823,2900
4.17395,3201
4.17967,2879
4.1854,3474
4.19112,3112
4.19683,3793
4.20257,3859
4.20828,2863
4.214,3118
4.21973,2950
4.22545,3392
4.23117,3512
4.23688,3511
4.24262,3381
4.24833,3715
4.25405,3016
4.25978,3793
4.2655,3003
4.27122,2711
4.27695,3388
4.28267,3386
4.28838,2552
4.29412,2467
4.29983,3448
4.30555,2463
4.31128,2996
4.317,3568
4.32272,2891
4.32845,3259
4.33417,2492
4.33988,3359
4.34562,2830
4.35133,2957
4.35705,3556
4.36277,2435
4.3685,3208
4.37422,3478
4.37993,3039
4.38567,2612
4.39138,3205
4.3971,2969
4.40283,3324
4.40855,3150
4.41427,2582
4.42,3640
4.42572,3410
4.43143,2693
4.43717,2333
4.44288,3054
4.4486,2800
4.45433,2737
4.46005,2587
4.46577,2944
4.4715,2775
4.47722,2885
4.48293,4003
4.48865,3038
4.49438,2094
4.5001,3188
4.50582,2215
4.51155,2909
4.51727,2130
4.52298,2056
4.52872,1998
4.53443,2441
4.54015,2234
4.54588,3290
4.5516,2446
4.55732,3074
4.56305,3104
4.56877,3129
4.57448,2657
4.58022,2094
4.58593,3417
4.59165,2304
4.59738,3219
4.6031,3096
4.60882,2741
4.61455,1928
4.62027,2101
4.62598,2268
4.6317,2688
4.63743,2362
4.64315,2654
4.64887,2732
4.6546,3182
4.66032,2816
4.66603,2311
4.67177,1782
4.67748,2812
4.6832,2354
4.68893,2086
4.69465,2118
4.70037,2304
4.7061,2659
4.71182,2175
4.71753,2242
4.72327,2716
4.72898,2617
4.7347,2398
4.74043,2375
4.74615,1994
4.75187,1865
4.75758,2592
4.76332,2057
4.76903,1946
4.77475,2712
4.78048,2616
4.7862,2339
4.79192,1372
4.79765,2324
4.80337,2593
4.80908,2493
4.81482,2489
4.82053,2221
4.82625,2075
4.83198,2080
4.8377,2545
4.84342,2143
4.84915,2141
4.85487,1959
4.86058,2529
4.86632,1511
4.87203,2128
4.87775,2573
4.88347,2704
4.8892,1941
4.89492,1800
4.90063,2434
4.90637,1826
4.91208,2272
4.9178,2977
4.92353,2482
4.92925,2268
4.93497,1882
4.9407,1668
4.94642,1904
4.95213,1987
4.95787,2494
4.96358,1853
4.9693,1991
4.97503,1702
4.98075,1998
4.98647,2546
4.9922,2136
4.99792,1784
5.00363,2312
5.00935,2446
5.01508,2210
5.0208,1951
5.02652,1695
5.03225,1792
5.03797,2334
5.04368,2147
5.04942,1717
5.05513,1489
5.06085,1708
5.06658,1921
5.0723,2117
5.07802,2644
5.08375,2108
5.08947,1498
5.09518,2489
5.10092,2027
5.10663,1642
5.11235,1492
5.11808,2367
5.1238,2283
5.12952,2266
5.13523,1797
5.14097,2240
5.14668,1482
5.1524,1815
5.15813,2291
5.16385,1462
5.16957,2703
5.1753,2691
5.18102,2573
5.18673,1767
5.19247,1872
5.19818,2782
5.2039,2782
5.20963,1795
5.21535,1490
5.22107,1715
5.2268,2046
5.23252,2108
5.23823,1756
5.24397,1593
5.24968,2139
5.2554,1826
5.26112,1696
5.26685,1532
5.27257,2099
5.27828,2162
5.28402,2023
5.28973,1983
5.29545,1504
5.30118,1507
5.3069,1374
5.31262,2012
5.31835,2251
5.32407,1934
5.32978,1823
5.33552,1727
5.34123,1865
5.34695,1464
5.35268,1582
5.3584,1789
5.36412,1780
5.36985,1779
5.37557,1645
5.38128,2022
5.387,1862
5.39273,2707
5.39845,2519
5.40417,3232
5.4099,2723
5.41562,3296
5.42133,3598
5.42707,3993
5.43278,4886
5.4385,4094
5.44423,3962
5.44995,4465
5.45567,3787
5.4614,3708
5.46712,3223
5.47283,2930
5.47857,3248
5.48428,2780
5.49,2659
5.49573,2263
5.50145,2400
5.50717,2619
5.51288,2243
5.51862,2172
5.52433,1639
5.53005,2349
5.53578,2188
5.5415,2655
5.54722,2117
5.55295,2935
5.55867,1449
5.56438,1886
5.57012,1968
5.57583,1563
5.58155,2135
5.58728,1830
5.593,1858
5.59872,2506
5.60445,2282
5.61017,1988
5.61588,2316
5.62162,1926
5.62733,1675
5.63305,1938
5.63877,1634
5.6445,1821
5.65022,2037
5.65593,1806
5.66167,1974
5.66738,1487
5.6731,1776
5.67883,2153
5.68455,1789
5.69027,1371
5.696,1601
5.70172,2074
5.70743,1893
5.71317,2584
5.71888,1262
5.7246,1594
5.73033,1589
5.73605,1773
5.74177,1679
5.7475,1418
5.75322,1773
5.75893,1787
5.76465,1679
5.77038,2071
5.7761,1822
5.78182,1649
5.78755,1483
5.79327,2147
5.79898,2173
5.80472,1392
5.81043,1861
5.81615,1025
5.82188,1868
5.8276,1554
5.83332,1950
5.83905,1263
5.84477,1896
5.85048,1282
5.85622,2440
5.86193,1672
5.86765,1559
5.87338,1361
5.8791,1199
5.88482,1342
5.89053,1429
5.89627,1640
5.90198,1354
5.9077,2127
5.91343,1450
5.91915,1824
5.92487,1673
5.9306,1358
5.93632,1457
5.94203,1564
5.94777,1493
5.95348,1826
5.9592,1195
5.96493,1573
5.97065,1468
5.97637,1163
5.9821,1023
5.98782,1252
5.99353,1518
5.99927,1459
6.00498,1255
6.0107,1324
6.01642,1854
6.02215,1231
6.02787,1309
6.03358,2012
6.03932,1245
6.04503,1718
6.05075,1580
6.05648,1347
6.0622,1638
6.06792,2082
6.07365,1120
6.07937,2290
6.08508,862
6.09082,2016
6.09653,1544
6.10225,1602
6.10798,1764
6.1137,1420
6.11942,2330
6.12515,1500
6.13087,1592
6.13658,1726
6.1423,2124
6.14803,1698
6.15375,1606
6.15947,2123
6.1652,1709
6.17092,1869
6.17663,1154
6.18237,1418
6.18808,2271
6.1938,1403
6.19953,1737
6.20525,1289
6.21097,1683
6.2167,1280
6.22242,852
6.22813,1768
6.23387,2325
6.23958,1331
6.2453,1515
6.25103,1388
6.25675,1401
6.26247,2051
6.26818,1385
6.27392,2236
6.27963,1135
6.28535,1270
6.29108,1700
6.2968,1601
6.30252,1406
6.30825,1700
6.31397,1193
6.31968,1791
6.32542,1694
6.33113,2206
6.33685,1273
6.34258,1088
6.3483,1559
6.35402,1727
6.35975,1229
6.36547,1624
6.37118,1449
6.37692,2699
6.38263,1970
6.38835,1235
6.39407,2327
6.3998,1351
6.40552,1187
6.41123,2068
6.41697,1112
6.42268,1864
6.4284,1690
6.43413,1293
6.43985,1740
6.44557,1516
6.4513,1502
6.45702,817
6.46273,1640
6.46847,827
6.47418,1328
6.4799,1525
6.48563,1189
6.49135,1150
6.49707,1036
6.5028,1767
6.50852,1203
6.51423,1437
6.51995,1841
6.52568,1693
6.5314,1052
6.53712,1171
6.54285,1621
6.54857,1326
6.55428,1413
6.56002,1124
6.56573,1231
6.57145,1199
6.57718,1499
6.5829,1473
6.58862,1394
6.59435,1259
6.60007,1722
6.60578,1313
6.61152,1465
6.61723,1474
6.62295,1283
6.62868,1051
6.6344,1542
6.64012,964
6.64583,1423
6.65157,1108
6.65728,1271
6.663,2164
6.66873,1685
6.67445,1487
6.68017,1345
6.6859,1918
6.69162,1399
6.69733,1854
6.70307,1958
6.70878,1694
6.7145,1860
6.72023,1724
6.72595,2715
6.73167,2763
6.7374,1530
6.74312,1769
6.74883,2048
6.75457,1799
6.76028,2034
6.766,2343
6.77172,1698
6.77745,1947
6.78317,1982
6.78888,2250
6.79462,1896
6.80033,2274
6.80605,2270
6.81178,2243
6.8175,1302
6.82322,2201
6.82895,2778
6.83467,2351
6.84038,1977
6.84612,1364
6.85183,1709
6.85755,1331
6.86328,1220
6.869,1505
6.87472,1935
6.88045,1626
6.88617,1144
6.89188,1286
6.8976,1613
6.90333,1588
6.90905,1666
6.91477,1529
6.9205,1447
6.92622,1820
6.93193,1625
6.93767,1528
6.94338,1780
6.9491,1619
6.95483,1371
6.96055,1741
6.96627,1571
6.972,1210
6.97772,2102
6.98343,1887
6.98917,1851
6.99488,2146
7.0006,1735
7.00633,1787
7.01205,1452
7.01777,2176
7.02348,1549
7.02922,2132
7.03493,1757
7.04065,1456
7.04638,1690
7.0521,782
7.05782,1714
7.06355,1326
7.06927,1604
7.07498,1467
7.08072,2526
7.08643,1608
7.09215,1512
7.09788,1248
7.1036,2607
7.10932,2734
7.11505,3894
7.12077,4587
7.12648,4814
7.13222,4843
7.13793,5025
7.14365,2912
7.14937,4062
7.1551,3910
7.16082,2854
7.16653,2669
7.17227,2167
7.17798,2615
7.1837,2228
7.18943,2831
7.19515,1224
7.20087,2045
7.2066,2046
7.21232,1898
7.21803,2010
7.22377,2544
7.22948,1594
7.2352,1474
7.24093,2116
7.24665,1826
7.25237,1633
7.2581,1635
7.26382,2258
7.26953,1437
7.27525,1214
7.28098,1933
7.2867,2894
7.29242,3843
7.29815,6017
7.30387,8609
7.30958,9597
7.31532,9911
7.32103,7532
7.32675,7402
7.33248,5709
7.3382,5145
7.34392,3831
7.34965,3228
7.35537,3098
7.36108,2092
7.36682,2305
7.37253,2278
7.37825,2048
7.38398,2008
7.3897,1460
7.39542,1879
7.40113,2499
7.40687,1716
7.41258,1864
7.4183,1733
7.42403,1924
7.42975,1579
7.43547,1872
7.4412,1429
7.44692,1805
7.45263,1841
7.45837,2505
7.46408,2296
7.4698,1691
7.47553,2829
7.48125,1419
7.48697,927
7.4927,1278
7.49842,1525
7.50413,1898
7.50987,1929
7.51558,1624
7.5213,1929
7.52702,1708
7.53275,1563
7.53847,1515
7.54418,1660
7.54992,1682
7.55563,1891
7.56135,1532
7.56708,1754
7.5728,2154
7.57852,2162
7.58425,1659
7.58997,1535
7.59568,1692
7.60142,1482
7.60713,1335
7.61285,2144
7.61858,1765
7.6243,1404
7.63002,2136
7.63575,1203
7.64147,1332
7.64718,1777
7.6529,2536
7.65863,1628
7.66435,1660
7.67007,1880
7.6758,1624
7.68152,1979
7.68723,2125
7.69297,2035
7.69868,1774
7.7044,1874
7.71013,2806
7.71585,2957
7.72157,2784
7.7273,2131
7.73302,2469
7.73873,1829
7.74447,1579
7.75018,2350
7.7559,1824
7.76163,2071
7.76735,1997
7.77307,2433
7.77878,2079
7.78452,1797
7.79023,1946
7.79595,1899
7.80168,1845
7.8074,1918
7.81312,2047
7.81885,2008
7.82457,2888
7.83028,1712
7.83602,2027
7.84173,2191
7.84745,2251
7.85318,1748
7.8589,2277
7.86462,2897
7.87035,2334
7.87607,2224
7.88178,1867
7.88752,2554
7.89323,2192
7.89895,2523
7.90467,2423
7.9104,1450
7.91612,2345
7.92183,1941
7.92757,1917
7.93328,1617
7.939,2189
7.94473,1763
7.95045,1873
7.95617,1552
7.9619,2696
7.96762,2164
7.97333,2195
7.97907,2054
7.98478,2086
7.9905,2187
7.99623,2566
8.00195,2052
8.00767,2067
8.0134,1926
8.01912,1997
8.02483,2107
8.03055,2068
8.03628,2251
8.042,2637
8.04772,1925
8.05345,1838
8.05917,2513
8.06488,2088
8.07062,1859
8.07633,2035
8.08205,2784
8.08778,2473
8.0935,1726
8.09922,2351
8.10495,1668
8.11067,1638
8.11638,1932
8.12212,2244
8.12783,2042
8.13355,2836
8.13928,1723
8.145,1870
8.15072,2639
8.15645,3169
8.16217,2274
8.16788,2347
8.1736,1856
8.17933,2949
8.18505,1769
8.19077,2096
8.1965,2416
8.20222,2411
8.20793,2307
8.21367,1734
8.21938,1520
8.2251,2056
8.23083,1724
8.23655,2201
8.24227,2162
8.248,1866
8.25372,1571
8.25943,2347
8.26517,2040
8.27088,1710
8.2766,1963
8.28233,2570
8.28805,2102
8.29377,2713
8.29948,1847
8.30522,2407
8.31093,1827
8.31665,2015
8.32238,2025
8.3281,2229
8.33382,2790
8.33955,1821
8.34527,2412
8.35098,2110
8.35672,2512
8.36243,2586
8.36815,2693
8.37388,1664
8.3796,2521
8.38532,2637
8.39105,2406
8.39677,1988
8.40248,2651
8.40822,3357
8.41393,2607
8.41965,2934
8.42537,2370
8.4311,2107
8.43682,1493
8.44253,2022
8.44827,1771
8.45398,2104
8.4597,2296
8.46543,1532
8.47115,2586
8.47687,2101
8.4826,2262
8.48832,1763
8.49403,2557
8.49977,2146
8.50548,2255
8.5112,1741
8.51693,2536
8.52265,2766
8.52837,2031
8.5341,2900
8.53982,2178
8.54553,2298
8.55125,2294
8.55698,2505
8.5627,2513
8.56842,2225
8.57415,2309
8.57987,2395
8.58558,2184
8.59132,2236
8.59703,2307
8.60275,2188
8.60848,2395
8.6142,2098
8.61992,2401
8.62565,2356
8.63137,2347
8.63708,1999
8.64282,2171
8.64853,2530
8.65425,2040
8.65998,1916
8.6657,2426
8.67142,2290
8.67713,2470
8.68287,2277
8.68858,1968
8.6943,2474
8.70003,1915
8.70575,2411
8.71147,2736
8.7172,2129
8.72292,2482
8.72863,2718
8.73437,2899
8.74008,2102
8.7458,2311
8.75153,2510
8.75725,2328
8.76297,1927
8.7687,3371
8.77442,2503
8.78013,2202
8.78587,2351
8.79158,2541
8.7973,2094
8.80302,2373
8.80875,2501
8.81447,1940
8.82018,2604
8.82592,2744
8.83163,1697
8.83735,2407
8.84308,2284
8.8488,2674
8.85452,2428
8.86025,2481
8.86597,2463
8.87168,2498
8.87742,2918
8.88313,2989
8.88885,3413
8.89458,2699
8.9003,2698
8.90602,3234
8.91175,2038
8.91747,2868
8.92318,2548
8.9289,2145
8.93463,3109
8.94035,3471
8.94607,2696
8.9518,2265
8.95752,2686
8.96323,2934
8.96897,2961
8.97468,3829
8.9804,5029
8.98613,8765
8.99185,11407
8.99757,13583
9.0033,10764
9.00902,7566
9.01473,4820
9.02047,4204
9.02618,2878
9.0319,2658
9.03763,2293
9.04335,2883
9.04907,2413
9.05478,2798
9.06052,2730
9.06623,1636
9.07195,2839
9.07768,3052
9.0834,2629
9.08912,2524
9.09485,2260
9.10057,3020
9.10628,3060
9.11202,2715
9.11773,2450
9.12345,3289
9.12918,2888
9.1349,2633
9.14062,2900
9.14635,2263
9.15207,2835
9.15778,2739
9.16352,2404
9.16923,2369
9.17495,2365
9.18067,2909
9.1864,2776
9.19212,2278
9.19783,2556
9.20357,2406
9.20928,2687
9.215,2622
9.22073,2110
9.22645,2796
9.23217,2817
9.2379,2557
9.24362,2153
9.24933,2292
9.25507,2840
9.26078,2774
9.2665,2862
9.27223,2133
9.27795,2781
9.28367,2363
9.2894,2254
9.29512,2417
9.30083,2373
9.30655,2265
9.31228,3353
9.318,2541
9.32372,2166
9.32945,2418
9.33517,3026
9.34088,3174
9.34662,2653
9.35233,2453
9.35805,2740
9.36378,2584
9.3695,3118
9.37522,2514
9.38095,2743
9.38667,2974
9.39238,2461
9.39812,3070
9.40383,2639
9.40955,2940
9.41528,3082
9.421,2783
9.42672,2839
9.43243,2679
9.43817,2959
9.44388,2955
9.4496,2513
9.45533,3233
9.46105,1737
9.46677,2705
9.4725,2942
9.47822,3023
9.48393,2770
9.48967,3009
9.49538,2984
9.5011,3229
9.50683,2824
9.51255,2480
9.51827,2437
9.524,3299
9.52972,3184
9.53543,2613
9.54117,3335
9.54688,3041
9.5526,3119
9.55832,3077
9.56405,2245
9.56977,2943
9.57548,2786
9.58122,2626
9.58693,2934
9.59265,2700
9.59838,3292
9.6041,2990
9.60982,2708
9.61555,2834
9.62127,3119
9.62698,3789
9.63272,3143
9.63843,2974
9.64415,3083
9.64988,3160
9.6556,3414
9.66132,3384
9.66705,4170
9.67277,2725
9.67848,4008
9.6842,2742
9.68993,2942
9.69565,2587
9.70137,3451
9.7071,2969
9.71282,3304
9.71853,3121
9.72427,2097
9.72998,2682
9.7357,2837
9.74143,3583
9.74715,3539
9.75287,2909
9.7586,3165
9.76432,2349
9.77003,2996
9.77577,3147
9.78148,3146
9.7872,2942
9.79293,3043
9.79865,4059
9.80437,3794
9.81008,2940
9.81582,3188
9.82153,3622
9.82725,2687
9.83298,2858
9.8387,3082
9.84442,3343
9.85015,2758
9.85587,3277
9.86158,3019
9.86732,2929
9.87303,2919
9.87875,3269
9.88448,3107
9.8902,3031
9.89592,2981
9.90165,2850
9.90737,3386
9.91308,2668
9.91882,2713
9.92453,3147
9.93025,3504
9.93597,2161
9.9417,2814
9.94742,2742
9.95313,2846
9.95887,2396
9.96458,2523
9.9703,3229
9.97603,2149
9.98175,2850
9.98747,3234
9.9932,3217
9.99892,3274
10.0046,3436
10.0104,3953
10.0161,2910
10.0218,3036
10.0275,2925
10.0333,3170
10.039,2640
10.0447,2695
10.0504,2641
10.0561,2782
10.0619,3455
10.0676,2775
10.0733,3299
10.079,3180
10.0848,2588
10.0905,3332
10.0962,2727
10.1019,2472
10.1076,2945
10.1134,2890
10.1191,2911
10.1248,2399
10.1305,2706
10.1363,3200
10.142,3112
10.1477,2856
10.1534,3175
10.1591,2275
10.1649,2274
10.1706,2078
10.1763,2740
10.182,2966
10.1877,2546
10.1935,3425
10.1992,3535
10.2049,2689
10.2106,2947
10.2164,2738
10.2221,2813
10.2278,2932
10.2335,3005
10.2392,3197
10.245,2229
10.2507,2886
10.2564,3122
10.2621,2769
10.2679,2794
10.2736,2647
10.2793,3481
10.285,2879
10.2907,2753
10.2965,3387
10.3022,3452
10.3079,2742
10.3136,2513
10.3194,2798
10.3251,3407
10.3308,2968
10.3365,3584
10.3422,3149
10.348,2293
10.3537,2533
10.3594,3531
10.3651,2940
10.3709,2809
10.3766,2584
10.3823,2864
10.388,3214
10.3937,3063
10.3995,2929
10.4052,2635
10.4109,3312
10.4166,3991
10.4224,6173
10.4281,7864
10.4338,12372
10.4395,12374
10.4452,8900
10.451,6279
10.4567,3708
10.4624,2383
10.4681,2712
10.4738,3388
10.4796,3164
10.4853,3629
10.491,2341
10.4967,3017
10.5025,3110
10.5082,3856
10.5139,3526
10.5196,2718
10.5253,2983
10.5311,3495
10.5368,2471
10.5425,2779
10.5482,2638
10.554,3156
10.5597,2735
10.5654,4103
10.5711,2316
10.5768,2860
10.5826,3645
10.5883,3362
10.594,4402
10.5997,13001
10.6055,37261
10.6112,89557
10.6169,151027
10.6226,194695
10.6283,170880
10.6341,109050
10.6398,52759
10.6455,20975
10.6512,9512
10.657,8142
10.6627,9881
10.6684,11476
10.6741,12641
10.6798,10332
10.6856,8204
10.6913,5614
10.697,4657
10.7027,4895
10.7084,4170
10.7142,4415
10.7199,3909
10.7256,3857
10.7313,3226
10.7371,3146
10.7428,3444
10.7485,3863
10.7542,4219
10.7599,3529
10.7657,3543
10.7714,3337
10.7771,4069
10.7828,2983
10.7886,3561
10.7943,3799
10.8,3344
10.8057,3069
10.8114,3473
10.8172,3750
10.8229,3657
10.8286,3726
10.8343,6322
10.8401,6648
10.8458,7501
10.8515,7370
10.8572,4894
10.8629,3698
10.8687,3857
10.8744,3726
10.8801,3611
10.8858,3591
10.8916,3477
10.8973,3295
10.903,3567
10.9087,3717
10.9144,3704
10.9202,3602
10.9259,3521
10.9316,2987
10.9373,3560
10.943,2868
10.9488,4078
10.9545,4207
10.9602,3132
10.9659,3430
10.9717,3902
10.9774,3121
10.9831,3181
10.9888,3538
10.9945,4266
11.0003,3778
11.006,3376
11.0117,3904
11.0174,3101
11.0232,3021
11.0289,2809
11.0346,3375
11.0403,3895
11.046,2964
11.0518,3091
11.0575,3321
11.0632,2960
11.0689,3168
11.0747,3724
11.0804,3708
11.0861,3736
11.0918,3822
11.0975,3513
11.1033,3900
11.109,3476
11.1147,3870
11.1204,4576
11.1262,3204
11.1319,3968
11.1376,4491
11.1433,3966
11.149,4018
11.1548,4252
11.1605,3861
11.1662,3574
11.1719,3902
11.1777,3422
11.1834,4606
11.1891,3788
11.1948,3603
11.2005,3590
11.2063,3698
11.212,3746
11.2177,4565
11.2234,4285
11.2291,4852
11.2349,5478
11.2406,7321
11.2463,7113
11.252,6903
11.2578,7939
11.2635,7067
11.2692,8242
11.2749,7924
11.2806,7160
11.2864,7069
11.2921,7469
11.2978,7033
11.3035,7271
11.3093,6783
11.315,6550
11.3207,6356
11.3264,6061
11.3321,6874
11.3379,6385
11.3436,6861
11.3493,5959
11.355,6550
11.3608,5117
11.3665,6611
11.3722,6219
11.3779,5681
11.3836,6042
11.3894,5297
11.3951,6243
11.4008,5964
11.4065,5814
11.4123,5815
11.418,4522
11.4237,5924
11.4294,5239
11.4351,5697
11.4409,5175
11.4466,5391
11.4523,5313
11.458,4284
11.4637,5911
11.4695,5986
11.4752,5420
11.4809,5819
11.4866,5185
11.4924,4393
11.4981,5411
11.5038,4340
11.5095,5308
11.5152,5597
11.521,5165
11.5267,5404
11.5324,4350
11.5381,5045
11.5439,4871
11.5496,4690
11.5553,4996
11.561,4777
11.5667,5096
11.5725,5363
11.5782,5101
11.5839,4392
11.5896,4517
11.5954,4983
11.6011,4964
11.6068,5177
11.6125,4353
11.6182,4306
11.624,4262
11.6297,5969
11.6354,4923
11.6411,4089
11.6469,5091
11.6526,4774
11.6583,4679
11.664,5212
11.6697,4988
11.6755,3873
11.6812,4405
11.6869,4663
11.6926,5014
11.6983,5977
11.7041,5338
11.7098,6793
11.7155,8971
11.7212,11286
11.727,11098
11.7327,8552
11.7384,7376
11.7441,5073
11.7498,4664
11.7556,4585
11.7613,4961
11.767,4045
11.7727,4422
11.7785,5059
11.7842,4118
11.7899,4142
11.7956,4032
11.8013,4616
11.8071,4669
11.8128,5157
11.8185,4978
11.8242,4804
11.83,4450
11.8357,4690
11.8414,4221
11.8471,3561
11.8528,4338
11.8586,4220
11.8643,3176
11.87,3906
11.8757,4489
11.8815,4422
11.8872,3473
11.8929,4319
11.8986,4145
11.9043,4360
11.9101,4098
11.9158,3744
11.9215,3982
11.9272,4553
11.933,4304
11.9387,4453
11.9444,4121
11.9501,4446
11.9558,4666
11.9616,4161
11.9673,4211
11.973,4083
11.9787,3781
11.9844,3867
11.9902,4759
11.9959,4813
12.0016,3757
12.0073,4581
12.0131,5245
12.0188,4351
12.0245,4290
12.0302,4035
12.0359,4540
12.0417,4476
12.0474,5060
12.0531,5444
12.0588,4129
12.0646,3364
12.0703,3753
12.076,4462
12.0817,5230
12.0874,5800
12.0932,4256
12.0989,4546
12.1046,4173
12.1103,4784
12.1161,5288
12.1218,8356
12.1275,9688
12.1332,10456
12.1389,10531
12.1447,7698
12.1504,6097
12.1561,5503
12.1618,4777
12.1676,5294
12.1733,3951
12.179,4010
12.1847,4553
12.1904,4002
12.1962,4520
12.2019,4859
12.2076,4664
12.2133,4380
12.219,5526
12.2248,4278
12.2305,4209
12.2362,3890
12.2419,4156
12.2477,5077
12.2534,5194
12.2591,4149
12.2648,4257
12.2705,4415
12.2763,4249
12.282,4484
12.2877,4440
12.2934,5109
12.2992,5314
12.3049,6122
12.3106,6010
12.3163,5023
12.322,5936
12.3278,5213
12.3335,5809
12.3392,4830
12.3449,4885
12.3507,5032
12.3564,5657
12.3621,6461
12.3678,6080
12.3735,5829
12.3793,6674
12.385,6302
12.3907,6111
12.3964,6119
12.4022,7072
12.4079,5994
12.4136,6351
12.4193,6949
12.425,7453
12.4308,7368
12.4365,7785
12.4422,8104
12.4479,6964
12.4537,7926
12.4594,7616
12.4651,7686
12.4708,8799
12.4765,7495
12.4823,7399
12.488,8613
12.4937,8241
12.4994,8856
12.5051,7968
12.5109,8689
12.5166,8260
12.5223,8428
12.528,8694
12.5338,8866
12.5395,8182
12.5452,8240
12.5509,8164
12.5566,7825
12.5624,7961
12.5681,7900
12.5738,6646
12.5795,7147
12.5853,7603
12.591,7200
12.5967,7844
12.6024,8786
12.6081,8691
12.6139,9185
12.6196,8301
12.6253,9159
12.631,9597
12.6368,8984
12.6425,10094
12.6482,8638
12.6539,9316
12.6596,9605
12.6654,9009
12.6711,9062
12.6768,9195
12.6825,9100
12.6883,9476
12.694,11040
12.6997,8492
12.7054,8635
12.7111,9250
12.7169,9015
12.7226,8250
12.7283,9310
12.734,8524
12.7397,8315
12.7455,8595
12.7512,8954
12.7569,9096
12.7626,8346
12.7684,9475
12.7741,8415
12.7798,8311
12.7855,8910
12.7912,9562
12.797,8423
12.8027,9051
12.8084,8971
12.8141,8777
12.8199,9276
12.8256,8828
12.8313,9493
12.837,7786
12.8427,8776
12.8485,9697
12.8542,9096
12.8599,9286
12.8656,8653
12.8714,8429
12.8771,8423
12.8828,9878
12.8885,10852
12.8942,13743
12.9,14468
12.9057,14306
12.9114,12059
12.9171,10423
12.9229,8930
12.9286,8608
12.9343,8793
12.94,8033
12.9457,8373
12.9515,9055
12.9572,7916
12.9629,9145
12.9686,8895
12.9743,8342
12.9801,7896
12.9858,8413
12.9915,8452
12.9972,7570
13.003,9047
13.0087,7864
13.0144,8628
13.0201,7839
13.0258,7329
13.0316,8608
13.0373,8502
13.043,7241
13.0487,8164
13.0545,6649
13.0602,7208
13.0659,8249
13.0716,8499
13.0773,7928
13.0831,7520
13.0888,8056
13.0945,7143
13.1002,7810
13.106,7761
13.1117,7711
13.1174,8109
13.1231,7791
13.1288,7635
13.1346,7375
13.1403,6606
13.146,7369
13.1517,7242
13.1575,7249
13.1632,7078
13.1689,7512
13.1746,7012
13.1803,7248
13.1861,7720
13.1918,8124
13.1975,7057
13.2032,6508
13.209,7224
13.2147,7266
13.2204,8438
13.2261,7738
13.2318,7613
13.2376,7698
13.2433,6766
13.249,7143
13.2547,7825
13.2604,7199
13.2662,7006
13.2719,7378
13.2776,7264
13.2833,7251
13.2891,7318
13.2948,7151
13.3005,7159
13.3062,7419
13.3119,7666
13.3177,7908
13.3234,6447
13.3291,6961
13.3348,7410
13.3406,7616
13.3463,7499
13.352,7344
13.3577,7470
13.3634,7221
13.3692,7691
13.3749,6166
13.3806,8767
13.3863,7699
13.3921,7855
13.3978,7156
13.4035,8116
13.4092,8321
13.4149,8108
13.4207,7590
13.4264,8026
13.4321,7842
13.4378,8269
13.4436,7065
13.4493,7043
13.455,7465
13.4607,7958
13.4664,7761
13.4722,7351
13.4779,6964
13.4836,7301
13.4893,6897
13.495,7019
13.5008,7900
13.5065,8290
13.5122,7649
13.5179,8688
13.5237,7523
13.5294,8224
13.5351,7907
13.5408,8068
13.5465,8484
13.5523,7845
13.558,7059
13.5637,8527
13.5694,8009
13.5752,7813
13.5809,7567
13.5866,8146
13.5923,7898
13.598,9420
13.6038,8075
13.6095,9015
13.6152,8544
13.6209,7787
13.6267,7427
13.6324,7709
13.6381,7768
13.6438,9111
13.6495,8843
13.6553,7526
13.661,7768
13.6667,8434
13.6724,7772
13.6782,7584
13.6839,8119
13.6896,8479
13.6953,7474
13.701,8164
13.7068,7947
13.7125,7711
13.7182,7797
13.7239,7265
13.7296,8344
13.7354,7751
13.7411,8748
13.7468,7207
13.7525,8831
13.7583,8100
13.764,8153
13.7697,7190
13.7754,8437
13.7811,7914
13.7869,7568
13.7926,8577
13.7983,7173
13.804,7152
13.8098,7442
13.8155,6921
13.8212,6605
13.8269,6811
13.8326,7624
13.8384,6689
13.8441,8716
13.8498,6691
13.8555,8253
13.8613,7599
13.867,7385
13.8727,7070
13.8784,6996
13.8841,8269
13.8899,7760
13.8956,6901
13.9013,7113
13.907,7539
13.9128,8268
13.9185,7215
13.9242,8089
13.9299,7107
13.9356,8241
13.9414,8373
13.9471,7617
13.9528,8891
13.9585,10996
13.9643,12432
13.97,14407
13.9757,13614
13.9814,11405
13.9871,9613
13.9929,9807
13.9986,8338
14.0043,8629
14.01,7858
14.0157,8972
14.0215,7486
14.0272,8531
14.0329,7505
14.0386,7962
14.0444,7419
14.0501,7173
14.0558,7975
14.0615,7675
14.0672,8598
14.073,8305
14.0787,7880
14.0844,6955
14.0901,7727
14.0959,7631
14.1016,6793
14.1073,7796
14.113,7511
14.1187,7344
14.1245,8683
14.1302,8770
14.1359,8279
14.1416,8582
14.1474,8515
14.1531,9790
14.1588,10704
14.1645,8710
14.1702,9472
14.176,8416
14.1817,8516
14.1874,9361
14.1931,8559
14.1989,7661
14.2046,9049
14.2103,7099
14.216,8049
14.2217,7322
14.2275,8575
14.2332,8969
14.2389,8192
14.2446,8727
14.2503,8052
14.2561,7240
14.2618,8055
14.2675,8833
14.2732,7875
14.279,8858
14.2847,9252
14.2904,8796
14.2961,8580
14.3018,8736
14.3076,8821
14.3133,10146
14.319,9289
14.3247,9368
14.3305,8403
14.3362,9543
14.3419,9080
14.3476,9174
14.3533,9924
14.3591,10221
14.3648,9558
14.3705,9546
14.3762,8454
14.382,8410
14.3877,9555
14.3934,9866
14.3991,10241
14.4048,9668
14.4106,9672
14.4163,9365
14.422,9702
14.4277,9842
14.4335,10143
14.4392,9472
14.4449,9140
14.4506,10129
14.4563,8521
14.4621,10244
14.4678,9762
14.4735,9229
14.4792,9224
14.4849,9730
14.4907,9785
14.4964,9609
14.5021,10499
14.5078,9820
14.5136,10543
14.5193,10559
14.525,9094
14.5307,11553
14.5364,10326
14.5422,9792
14.5479,11469
14.5536,10587
14.5593,10185
14.5651,10155
14.5708,10993
14.5765,11155
14.5822,10763
14.5879,9892
14.5937,9787
14.5994,10244
14.6051,10490
14.6108,10110
14.6166,10224
14.6223,10887
14.628,11115
14.6337,11490
14.6394,11494
14.6452,12080
14.6509,11626
14.6566,11000
14.6623,10774
14.6681,11646
14.6738,10942
14.6795,10666
14.6852,10697
14.6909,12159
14.6967,11116
14.7024,11143
14.7081,11318
14.7138,11594
14.7196,11510
14.7253,11521
14.731,11490
14.7367,11451
14.7424,12628
14.7482,10708
14.7539,11315
14.7596,11931
14.7653,12795
14.771,12434
14.7768,12611
14.7825,12089
14.7882,12926
14.7939,11942
14.7997,13473
14.8054,13170
14.8111,13343
14.8168,13117
14.8225,12470
14.8283,13966
14.834,14060
14.8397,12283
14.8454,12076
14.8512,13880
14.8569,12533
14.8626,12774
14.8683,13213
14.874,13014
14.8798,13861
14.8855,14011
14.8912,13218
14.8969,13626
14.9027,14766
14.9084,13947
14.9141,13917
14.9198,13984
14.9255,13622
14.9313,13926
14.937,14824
14.9427,17178
14.9484,18855
14.9542,20477
14.9599,22335
14.9656,20478
14.9713,17625
14.977,15993
14.9828,15982
14.9885,13438
14.9942,15249
14.9999,15360
15.0056,15326
15.0114,16242
15.0171,15915
15.0228,15295
15.0285,15374
15.0343,15480
15.04,15732
15.0457,15764
15.0514,16505
15.0571,17148
15.0629,16731
15.0686,16560
15.0743,17332
15.08,16330
15.0858,17032
15.0915,16011
15.0972,17960
15.1029,16581
15.1086,16606
15.1144,15260
15.1201,15699
15.1258,16709
15.1315,16714
15.1373,16932
15.143,16446
15.1487,16558
15.1544,18328
15.1601,16514
15.1659,17391
15.1716,17691
15.1773,18090
15.183,18674
15.1888,17159
15.1945,18231
15.2002,19265
15.2059,17324
15.2116,18525
15.2174,19260
15.2231,18439
15.2288,18124
15.2345,18009
15.2402,18154
15.246,18298
15.2517,18202
15.2574,17325
15.2631,19049
15.2689,20319
15.2746,20570
15.2803,18341
15.286,19271
15.2917,18590
15.2975,18045
15.3032,20071
15.3089,19690
15.3146,20224
15.3204,19080
15.3261,19636
15.3318,20226
15.3375,19056
15.3432,20490
15.349,20976
15.3547,22089
15.3604,18974
15.3661,20079
15.3719,20495
15.3776,21690
15.3833,21075
15.389,22534
15.3947,20621
15.4005,22252
15.4062,20964
15.4119,21967
15.4176,21617
15.4234,20804
15.4291,21380
15.4348,23204
15.4405,21570
15.4462,22710
15.452,23725
15.4577,21942
15.4634,22736
15.4691,22997
15.4749,23323
15.4806,22073
15.4863,23346
15.492,22318
15.4977,22594
15.5035,21711
15.5092,22515
15.5149,23655
15.5206,23173
15.5263,23720
15.5321,23670
15.5378,25336
15.5435,23764
15.5492,24650
15.555,22837
15.5607,25870
15.5664,23837
15.5721,26076
15.5778,25732
15.5836,24135
15.5893,24834
15.595,25366
15.6007,25630
15.6065,26288
15.6122,26264
15.6179,26281
15.6236,27601
15.6293,27486
15.6351,26994
15.6408,25712
15.6465,26816
15.6522,26715
15.658,26459
15.6637,27090
15.6694,28757
15.6751,28265
15.6808,27477
15.6866,28117
15.6923,25846
15.698,26761
15.7037,28676
15.7095,26898
15.7152,28887
15.7209,28615
15.7266,29182
15.7323,29605
15.7381,29615
15.7438,28373
15.7495,28880
15.7552,30226
15.7609,29285
15.7667,29628
15.7724,28796
15.7781,29672
15.7838,28691
15.7896,28972
15.7953,30394
15.801,30705
15.8067,32119
15.8124,31276
15.8182,30091
15.8239,30174
15.8296,31570
15.8353,30436
15.8411,30002
15.8468,31999
15.8525,32756
15.8582,31476
15.8639,31986
15.8697,33910
15.8754,34522
15.8811,38182
15.8868,41353
15.8926,44020
15.8983,40260
15.904,37154
15.9097,37489
15.9154,34330
15.9212,34394
15.9269,33252
15.9326,36024
15.9383,33330
15.9441,33322
15.9498,35091
15.9555,33762
15.9612,33853
15.9669,34261
15.9727,34158
15.9784,33863
15.9841,33940
15.9898,33903
15.9956,34944
16.0013,34526
16.007,36127
16.0127,36562
16.0184,35289
16.0241,36245
16.0299,36181
16.0356,35211
16.0413,35996
16.047,37263
16.0528,35246
16.0585,37604
16.0642,37467
16.0699,36739
16.0757,35588
16.0814,36949
16.0871,37659
16.0928,39165
16.0985,38129
16.1043,38446
16.11,40854
16.1157,38749
16.1214,39530
16.1272,39008
16.1329,39666
16.1386,40100
16.1443,39250
16.15,41161
16.1558,41441
16.1615,43274
16.1672,40269
16.1729,42153
16.1787,41285
16.1844,43315
16.1901,43799
16.1958,43518
16.2015,43198
16.2072,43729
16.213,43149
16.2187,42318
16.2244,45106
16.2301,44493
16.2359,44682
16.2416,45025
16.2473,44506
16.253,43952
16.2587,44966
16.2645,44126
16.2702,43781
16.2759,47526
16.2816,45413
16.2874,46083
16.2931,46145
16.2988,46476
16.3045,44889
16.3103,43980
16.316,47863
16.3217,47611
16.3274,46649
16.3331,46866
16.3389,47008
16.3446,48565
16.3503,49181
16.356,47766
16.3618,48497
16.3675,46850
16.3732,47189
16.3789,47993
16.3846,49972
16.3904,49746
16.3961,48349
16.4018,49666
16.4075,49662
16.4133,48983
16.419,51320
16.4247,53164
16.4304,51756
16.4361,51400
16.4418,50999
16.4476,48950
16.4533,51161
16.459,52906
16.4647,53911
16.4705,54050
16.4762,54279
16.4819,52127
16.4876,54512
16.4934,54849
16.4991,54616
16.5048,54139
16.5105,53047
16.5162,53712
16.522,55941
16.5277,55126
16.5334,55613
16.5391,56778
16.5449,56835
16.5506,57447
16.5563,55329
16.562,57125
16.5677,58022
16.5735,56721
16.5792,55669
16.5849,58127
16.5906,59598
16.5964,59250
16.6021,58770
16.6078,61677
16.6135,57817
16.6192,58599
16.625,60109
16.6307,59127
16.6364,59751
16.6421,59569
16.6478,58624
16.6536,60935
16.6593,61733
16.665,59906
16.6707,59921
16.6764,64116
16.6822,62897
16.6879,59996
16.6936,64695
16.6993,64829
16.7051,64235
16.7108,67472
16.7165,61694
16.7222,63801
16.728,66280
16.7337,62269
16.7394,64630
16.7451,67270
16.7509,68779
16.7566,74146
16.7623,78122
16.768,74556
16.7737,74057
16.7795,72370
16.7852,71870
16.7909,68154
16.7966,66646
16.8023,67555
16.8081,70349
16.8138,70052
16.8195,70045
16.8252,70069
16.831,70291
16.8367,70080
16.8424,68893
16.8481,71092
16.8538,70283
16.8596,70998
16.8653,70834
16.871,72201
16.8767,72451
16.8824,71074
16.8882,72513
16.8939,75564
16.8996,71067
16.9053,74195
16.911,73928
16.9168,72940
16.9225,75178
16.9282,76083
16.9339,76165
16.9397,75391
16.9454,77451
16.9511,75398
16.9568,73512
16.9626,76638
16.9683,73217
16.974,76910
16.9797,75651
16.9855,78165
16.9912,79008
16.9969,80721
17.0026,80447
17.0083,78904
17.0141,78050
17.0198,80879
17.0255,79042
17.0312,80495
17.0369,81665
17.0427,79974
17.0484,81040
17.0541,83979
17.0598,82041
17.0656,79327
17.0713,84344
17.077,84287
17.0827,83653
17.0884,85632
17.0942,82890
17.0999,82355
17.1056,86045
17.1113,86159
17.117,86130
17.1228,83377
17.1285,85456
17.1342,85433
17.1399,84921
17.1457,87274
17.1514,87704
17.1571,87640
17.1628,83296
17.1686,86225
17.1743,87853
17.18,84455
17.1857,85917
17.1914,89949
17.1972,89360
17.2029,85207
17.2086,90316
17.2143,87289
17.2201,88672
17.2258,90096
17.2315,90836
17.2372,89335
17.2429,90305
17.2487,90963
17.2544,90212
17.2601,93148
17.2658,90557
17.2715,92783
17.2773,91791
17.283,92730
17.2887,95835
17.2944,92821
17.3001,91444
17.3059,91514
17.3116,93642
17.3173,92412
17.323,95112
17.3288,92403
17.3345,95497
17.3402,94030
17.3459,96690
17.3516,93116
17.3574,93452
17.3631,93771
17.3688,95115
17.3745,92912
17.3803,95963
17.386,93384
17.3917,95971
17.3974,97829
17.4032,97742
17.4089,96502
17.4146,96526
17.4203,95596
17.426,95323
17.4318,94753
17.4375,96842
17.4432,97655
17.4489,97653
17.4547,97941
17.4604,95361
17.4661,97875
17.4718,100193
17.4775,97417
17.4833,97496
17.489,99667
17.4947,100469
17.5004,96108
17.5062,98261
17.5119,96951
17.5176,100500
17.5233,99242
17.529,99980
17.5348,99837
17.5405,98068
17.5462,102215
17.5519,98917
17.5576,99527
17.5634,98539
17.5691,99756
17.5748,100389
17.5805,104263
17.5863,100741
17.592,106944
17.5977,103705
17.6034,105762
17.6091,106665
17.6149,108601
17.6206,106692
17.6263,108958
17.632,103203
17.6378,104702
17.6435,100230
17.6492,100131
17.6549,103135
17.6606,100189
17.6664,100423
17.6721,101699
17.6778,103063
17.6835,102517
17.6893,106364
17.695,103810
17.7007,104431
17.7064,105165
17.7121,103870
17.7179,107542
17.7236,101105
17.7293,101252
17.735,102936
17.7408,103626
17.7465,103227
17.7522,103686
17.7579,103319
17.7636,102891
17.7693,102807
17.7751,102586
17.7808,101802
17.7865,104207
17.7922,103689
17.798,101978
17.8037,102786
17.8094,103109
17.8151,104526
17.8209,103268
17.8266,106912
17.8323,105842
17.838,107831
17.8437,103626
17.8495,104522
17.8552,104423
17.8609,105351
17.8666,105294
17.8724,108578
17.8781,108573
17.8838,106418
17.8895,110109
17.8952,107557
17.901,110285
17.9067,105197
17.9124,106807
17.9181,108991
17.9239,108219
17.9296,107254
17.9353,107699
17.941,108447
17.9467,107697
17.9525,108539
17.9582,106083
17.9639,106536
17.9696,107190
17.9754,108177
17.9811,110028
17.9868,108469
17.9925,109577
