C:\MSDCHEM\1\DATA\MANDKHAI\20180626 MTH_C12COA\SLR_NltAB_E57Q_French_2.d 27 Jun 18  12:56 pm
Start of data points
5.09252,173
5.09825,187
5.10397,165
5.10968,247
5.11542,417
5.12113,211
5.12685,165
5.13258,229
5.1383,206
5.14402,171
5.14973,274
5.15547,180
5.16118,189
5.1669,175
5.17263,173
5.17835,170
5.18407,171
5.1898,219
5.19552,172
5.20123,159
5.20697,0
5.21268,191
5.2184,217
5.22413,234
5.22985,174
5.23557,198
5.2413,183
5.24702,189
5.25273,168
5.25847,260
5.26418,178
5.2699,157
5.27562,203
5.28135,0
5.28707,0
5.29278,204
5.29852,0
5.30423,0
5.30995,0
5.31568,0
5.3214,218
5.32712,173
5.33285,0
5.33857,0
5.34428,0
5.35002,0
5.35573,0
5.36145,240
5.36718,158
5.3729,0
5.37862,0
5.38435,0
5.39007,160
5.39578,0
5.4015,156
5.40723,0
5.41295,0
5.41867,196
5.4244,157
5.43012,195
5.43583,0
5.44157,0
5.44728,202
5.453,0
5.45873,189
5.46445,243
5.47017,186
5.4759,0
5.48162,169
5.48733,154
5.49307,232
5.49878,211
5.5045,164
5.51023,163
5.51595,266
5.52167,0
5.52738,0
5.53312,0
5.53883,198
5.54455,0
5.55028,155
5.556,0
5.56172,156
5.56745,0
5.57317,0
5.57888,0
5.58462,157
5.59033,151
5.59605,188
5.60178,265
5.6075,0
5.61322,0
5.61895,168
5.62467,237
5.63038,150
5.63612,0
5.64183,171
5.64755,169
5.65327,209
5.659,0
5.66472,151
5.67043,0
5.67617,170
5.68188,0
5.6876,162
5.69333,188
5.69905,150
5.70477,0
5.7105,152
5.71622,171
5.72193,172
5.72767,0
5.73338,0
5.7391,0
5.74483,0
5.75055,0
5.75627,0
5.762,0
5.76772,177
5.77343,0
5.77915,336
5.78488,336
5.7906,0
5.79632,0
5.80205,177
5.80777,0
5.81348,151
5.81922,194
5.82493,154
5.83065,0
5.83638,196
5.8421,163
5.84782,164
5.85355,150
5.85927,211
5.86498,213
5.87072,159
5.87643,151
5.88215,160
5.88788,180
5.8936,151
5.89932,162
5.90503,0
5.91077,236
5.91648,157
5.9222,0
5.92793,0
5.93365,166
5.93937,153
5.9451,0
5.95082,0
5.95653,167
5.96227,0
5.96798,159
5.9737,0
5.97943,0
5.98515,0
5.99087,0
5.9966,163
6.00232,196
6.00803,0
6.01377,183
6.01948,0
6.0252,0
6.03092,0
6.03665,0
6.04237,181
6.04808,0
6.05382,151
6.05953,156
6.06525,0
6.07098,0
6.0767,0
6.08242,163
6.08815,0
6.09387,0
6.09958,158
6.10532,0
6.11103,0
6.11675,0
6.12248,0
6.1282,0
6.13392,0
6.13965,0
6.14537,0
6.15108,0
6.1568,0
6.16253,0
6.16825,0
6.17397,0
6.1797,0
6.18542,0
6.19113,0
6.19687,0
6.20258,0
6.2083,0
6.21403,0
6.21975,0
6.22547,0
6.2312,0
6.23692,0
6.24263,0
6.24837,0
6.25408,0
6.2598,0
6.26553,162
6.27125,0
6.27697,0
6.28268,0
6.28842,0
6.29413,0
6.29985,0
6.30558,0
6.3113,0
6.31702,0
6.32275,0
6.32847,0
6.33418,0
6.33992,201
6.34563,0
6.35135,0
6.35708,0
6.3628,165
6.36852,0
6.37425,0
6.37997,0
6.38568,172
6.39142,0
6.39713,0
6.40285,0
6.40857,152
6.4143,0
6.42002,0
6.42573,0
6.43147,0
6.43718,0
6.4429,0
6.44863,0
6.45435,0
6.46007,0
6.4658,0
6.47152,0
6.47723,0
6.48297,0
6.48868,0
6.4944,0
6.50013,0
6.50585,0
6.51157,0
6.5173,161
6.52302,0
6.52873,335
6.53445,481
6.54018,458
6.5459,520
6.55162,574
6.55735,417
6.56307,388
6.56878,288
6.57452,198
6.58023,163
6.58595,0
6.59168,158
6.5974,0
6.60312,160
6.60885,0
6.61457,0
6.62028,235
6.62602,0
6.63173,0
6.63745,0
6.64318,179
6.6489,0
6.65462,0
6.66033,0
6.66607,0
6.67178,0
6.6775,0
6.68323,0
6.68895,0
6.69467,0
6.7004,179
6.70612,0
6.71183,152
6.71757,0
6.72328,0
6.729,0
6.73473,0
6.74045,202
6.74617,254
6.7519,368
6.75762,0
6.76333,176
6.76907,191
6.77478,0
6.7805,0
6.78622,200
6.79195,0
6.79767,0
6.80338,0
6.80912,0
6.81483,0
6.82055,167
6.82628,0
6.832,0
6.83772,158
6.84345,0
6.84917,0
6.85488,0
6.86062,0
6.86633,0
6.87205,0
6.87778,0
6.8835,0
6.88922,0
6.89495,0
6.90067,0
6.90638,0
6.9121,150
6.91783,0
6.92355,0
6.92927,0
6.935,0
6.94072,0
6.94643,0
6.95217,0
6.95788,0
6.9636,0
6.96933,0
6.97505,0
6.98077,0
6.9865,0
6.99222,0
6.99793,0
7.00367,0
7.00938,0
7.0151,0
7.02083,0
7.02655,0
7.03227,0
7.03798,0
7.04372,0
7.04943,0
7.05515,0
7.06088,0
7.0666,0
7.07232,0
7.07805,0
7.08377,0
7.08948,0
7.09522,0
7.10093,0
7.10665,0
7.11238,0
7.1181,0
7.12382,0
7.12955,0
7.13527,0
7.14098,0
7.14672,0
7.15243,0
7.15815,0
7.16387,0
7.1696,0
7.17532,0
7.18103,0
7.18677,0
7.19248,0
7.1982,0
7.20393,0
7.20965,0
7.21537,0
7.2211,0
7.22682,0
7.23253,0
7.23827,0
7.24398,0
7.2497,0
7.25543,0
7.26115,0
7.26687,0
7.2726,0
7.27832,0
7.28403,0
7.28975,0
7.29548,0
7.3012,0
7.30692,0
7.31265,0
7.31837,0
7.32408,0
7.32982,0
7.33553,0
7.34125,0
7.34698,0
7.3527,0
7.35842,0
7.36415,0
7.36987,0
7.37558,0
7.38132,0
7.38703,0
7.39275,0
7.39848,0
7.4042,0
7.40992,0
7.41563,0
7.42137,195
7.42708,0
7.4328,0
7.43853,0
7.44425,0
7.44997,0
7.4557,0
7.46142,0
7.46713,0
7.47287,0
7.47858,0
7.4843,0
7.49003,0
7.49575,0
7.50147,0
7.5072,0
7.51292,0
7.51863,0
7.52437,0
7.53008,0
7.5358,0
7.54152,0
7.54725,0
7.55297,0
7.55868,0
7.56442,0
7.57013,0
7.57585,0
7.58158,0
7.5873,0
7.59302,0
7.59875,0
7.60447,0
7.61018,0
7.61592,0
7.62163,0
7.62735,0
7.63308,0
7.6388,0
7.64452,0
7.65025,0
7.65597,152
7.66168,0
7.66742,0
7.67313,0
7.67885,0
7.68457,0
7.6903,0
7.69602,0
7.70173,0
7.70747,0
7.71318,0
7.7189,0
7.72463,0
7.73035,0
7.73607,0
7.7418,0
7.74752,0
7.75323,0
7.75897,0
7.76468,0
7.7704,0
7.77613,0
7.78185,0
7.78757,0
7.7933,0
7.79902,0
7.80473,0
7.81045,0
7.81618,0
7.8219,0
7.82762,0
7.83335,0
7.83907,0
7.84478,0
7.85052,0
7.85623,0
7.86195,0
7.86768,0
7.8734,0
7.87912,0
7.88485,0
7.89057,0
7.89628,0
7.90202,0
7.90773,0
7.91345,0
7.91918,0
7.9249,0
7.93062,0
7.93633,0
7.94207,0
7.94778,0
7.9535,0
7.95923,0
7.96495,0
7.97067,0
7.9764,0
7.98212,0
7.98783,0
7.99357,0
7.99928,0
8.005,0
8.01073,0
8.01645,0
8.02217,0
8.0279,0
8.03362,0
8.03933,0
8.04507,0
8.05078,0
8.0565,0
8.06222,0
8.06795,0
8.07367,0
8.07938,0
8.08512,0
8.09083,0
8.09655,0
8.10228,0
8.108,0
8.11372,0
8.11945,0
8.12517,0
8.13088,0
8.13662,0
8.14233,0
8.14805,0
8.15378,0
8.1595,0
8.16522,0
8.17095,0
8.17667,0
8.18238,0
8.1881,0
8.19383,0
8.19955,0
8.20527,0
8.211,0
8.21672,0
8.22243,0
8.22817,168
8.23388,0
8.2396,0
8.24533,0
8.25105,0
8.25677,0
8.2625,0
8.26822,0
8.27393,0
8.27967,0
8.28538,0
8.2911,0
8.29683,0
8.30255,0
8.30827,0
8.31398,0
8.31972,0
8.32543,0
8.33115,0
8.33688,0
8.3426,0
8.34832,0
8.35405,0
8.35977,0
8.36548,0
8.37122,0
8.37693,0
8.38265,0
8.38838,0
8.3941,0
8.39982,0
8.40555,0
8.41127,0
8.41698,0
8.42272,0
8.42843,0
8.43415,0
8.43987,0
8.4456,0
8.45132,0
8.45703,0
8.46277,0
8.46848,0
8.4742,162
8.47993,0
8.48565,171
8.49137,0
8.4971,0
8.50282,0
8.50853,0
8.51427,0
8.51998,0
8.5257,0
8.53143,0
8.53715,0
8.54287,0
8.5486,0
8.55432,0
8.56003,0
8.56575,0
8.57148,0
8.5772,0
8.58292,0
8.58865,0
8.59437,0
8.60008,0
8.60582,0
8.61153,0
8.61725,0
8.62298,0
8.6287,0
8.63442,0
8.64015,0
8.64587,0
8.65158,0
8.65732,0
8.66303,0
8.66875,0
8.67448,0
8.6802,0
8.68592,0
8.69163,0
8.69737,0
8.70308,0
8.7088,0
8.71453,0
8.72025,0
8.72597,0
8.7317,0
8.73742,0
8.74313,0
8.74887,0
8.75458,0
8.7603,0
8.76603,0
8.77175,0
8.77747,0
8.7832,0
8.78892,0
8.79463,0
8.80037,0
8.80608,0
8.8118,0
8.81752,0
8.82325,0
8.82897,0
8.83468,0
8.84042,0
8.84613,0
8.85185,0
8.85758,0
8.8633,0
8.86902,0
8.87475,0
8.88047,0
8.88618,0
8.89192,0
8.89763,0
8.90335,0
8.90908,0
8.9148,0
8.92052,0
8.92625,0
8.93197,0
8.93768,0
8.9434,0
8.94913,0
8.95485,0
8.96057,0
8.9663,0
8.97202,0
8.97773,0
8.98347,0
8.98918,0
8.9949,0
9.00063,0
9.00635,0
9.01207,0
9.0178,0
9.02352,0
9.02923,0
9.03497,0
9.04068,0
9.0464,0
9.05213,0
9.05785,0
9.06357,0
9.06928,0
9.07502,0
9.08073,0
9.08645,0
9.09218,0
9.0979,0
9.10362,0
9.10935,0
9.11507,0
9.12078,0
9.12652,0
9.13223,0
9.13795,0
9.14368,0
9.1494,0
9.15512,0
9.16085,154
9.16657,0
9.17228,0
9.17802,0
9.18373,0
9.18945,0
9.19517,0
9.2009,0
9.20662,0
9.21233,0
9.21807,0
9.22378,0
9.2295,0
9.23523,0
9.24095,0
9.24667,0
9.2524,0
9.25812,0
9.26383,0
9.26957,0
9.27528,0
9.281,0
9.28673,0
9.29245,0
9.29817,0
9.3039,0
9.30962,0
9.31533,0
9.32105,0
9.32678,0
9.3325,0
9.33822,0
9.34395,0
9.34967,0
9.35538,0
9.36112,0
9.36683,0
9.37255,0
9.37828,0
9.384,0
9.38972,0
9.39545,0
9.40117,0
9.40688,0
9.41262,0
9.41833,0
9.42405,0
9.42978,0
9.4355,0
9.44122,0
9.44693,0
9.45267,0
9.45838,0
9.4641,0
9.46983,0
9.47555,0
9.48127,0
9.487,0
9.49272,0
9.49843,0
9.50417,0
9.50988,0
9.5156,186
9.52133,0
9.52705,0
9.53277,0
9.5385,0
9.54422,0
9.54993,0
9.55567,0
9.56138,0
9.5671,0
9.57282,0
9.57855,0
9.58427,0
9.58998,0
9.59572,0
9.60143,0
9.60715,0
9.61288,0
9.6186,0
9.62432,0
9.63005,0
9.63577,0
9.64148,0
9.64722,0
9.65293,0
9.65865,0
9.66438,0
9.6701,159
9.67582,0
9.68155,0
9.68727,0
9.69298,0
9.6987,0
9.70443,0
9.71015,0
9.71587,0
9.7216,193
9.72732,0
9.73303,0
9.73877,0
9.74448,0
9.7502,0
9.75593,0
9.76165,0
9.76737,0
9.7731,0
9.77882,0
9.78453,0
9.79027,0
9.79598,152
9.8017,0
9.80743,0
9.81315,0
9.81887,0
9.82458,0
9.83032,0
9.83603,0
9.84175,0
9.84748,0
9.8532,0
9.85892,0
9.86465,0
9.87037,0
9.87608,197
9.88182,0
9.88753,0
9.89325,0
9.89898,0
9.9047,0
9.91042,0
9.91615,0
9.92187,0
9.92758,0
9.93332,0
9.93903,0
9.94475,0
9.95047,157
9.9562,0
9.96192,0
9.96763,0
9.97337,0
9.97908,0
9.9848,0
9.99053,150
9.99625,0
10.002,0
10.0077,175
10.0134,0
10.0191,0
10.0249,0
10.0306,0
10.0363,0
10.042,0
10.0478,0
10.0535,0
10.0592,0
10.0649,0
10.0706,0
10.0764,0
10.0821,0
10.0878,0
10.0935,0
10.0993,0
10.105,0
10.1107,0
10.1164,0
10.1221,0
10.1279,0
10.1336,0
10.1393,0
10.145,0
10.1508,0
10.1565,0
10.1622,0
10.1679,0
10.1736,0
10.1794,0
10.1851,0
10.1908,0
10.1965,0
10.2022,0
10.208,0
10.2137,0
10.2194,0
10.2251,0
10.2309,0
10.2366,0
10.2423,0
10.248,0
10.2537,0
10.2595,0
10.2652,0
10.2709,0
10.2766,0
10.2824,0
10.2881,0
10.2938,0
10.2995,0
10.3052,0
10.311,0
10.3167,0
10.3224,0
10.3281,0
10.3339,0
10.3396,0
10.3453,0
10.351,0
10.3567,0
10.3625,0
10.3682,0
10.3739,0
10.3796,0
10.3854,0
10.3911,0
10.3968,0
10.4025,0
10.4082,0
10.414,0
10.4197,0
10.4254,0
10.4311,0
10.4369,0
10.4426,0
10.4483,0
10.454,0
10.4597,0
10.4655,0
10.4712,0
10.4769,0
10.4826,0
10.4883,0
10.4941,0
10.4998,0
10.5055,0
10.5112,0
10.517,0
10.5227,0
10.5284,0
10.5341,0
10.5398,0
10.5456,0
10.5513,0
10.557,0
10.5627,0
10.5685,0
10.5742,157
10.5799,0
10.5856,0
10.5913,0
10.5971,0
10.6028,0
10.6085,0
10.6142,0
10.62,0
10.6257,0
10.6314,0
10.6371,169
10.6428,0
10.6486,0
10.6543,0
10.66,0
10.6657,0
10.6715,0
10.6772,0
10.6829,0
10.6886,0
10.6943,0
10.7001,154
10.7058,0
10.7115,0
10.7172,0
10.7229,0
10.7287,0
10.7344,0
10.7401,0
10.7458,0
10.7516,0
10.7573,0
10.763,0
10.7687,0
10.7744,0
10.7802,0
10.7859,0
10.7916,0
10.7973,0
10.8031,0
10.8088,162
10.8145,0
10.8202,0
10.8259,0
10.8317,0
10.8374,0
10.8431,0
10.8488,0
10.8546,0
10.8603,0
10.866,0
10.8717,0
10.8774,0
10.8832,0
10.8889,0
10.8946,0
10.9003,0
10.9061,186
10.9118,0
10.9175,0
10.9232,0
10.9289,0
10.9347,0
10.9404,0
10.9461,0
10.9518,0
10.9575,0
10.9633,0
10.969,0
10.9747,0
10.9804,0
10.9862,0
10.9919,0
10.9976,0
11.0033,0
11.009,158
11.0148,0
11.0205,0
11.0262,0
11.0319,0
11.0377,193
11.0434,0
11.0491,0
11.0548,0
11.0605,0
11.0663,0
11.072,0
11.0777,0
11.0834,0
11.0892,0
11.0949,0
11.1006,0
11.1063,0
11.112,0
11.1178,0
11.1235,0
11.1292,0
11.1349,0
11.1407,0
11.1464,0
11.1521,0
11.1578,0
11.1635,0
11.1693,166
11.175,0
11.1807,0
11.1864,0
11.1922,0
11.1979,0
11.2036,0
11.2093,168
11.215,151
11.2208,0
11.2265,0
11.2322,0
11.2379,176
11.2436,0
11.2494,0
11.2551,0
11.2608,0
11.2665,0
11.2723,0
11.278,0
11.2837,0
11.2894,0
11.2951,0
11.3009,0
11.3066,0
11.3123,0
11.318,154
11.3238,218
11.3295,0
11.3352,0
11.3409,0
11.3466,0
11.3524,0
11.3581,0
11.3638,201
11.3695,0
11.3753,0
11.381,183
11.3867,0
11.3924,0
11.3981,0
11.4039,189
11.4096,0
11.4153,0
11.421,0
11.4268,0
11.4325,0
11.4382,173
11.4439,0
11.4496,0
11.4554,0
11.4611,0
11.4668,183
11.4725,0
11.4782,0
11.484,0
11.4897,211
11.4954,192
11.5011,170
11.5069,171
11.5126,178
11.5183,0
11.524,0
11.5297,185
11.5355,0
11.5412,0
11.5469,155
11.5526,0
11.5584,192
11.5641,0
11.5698,0
11.5755,0
11.5812,210
11.587,154
11.5927,0
11.5984,0
11.6041,0
11.6099,154
11.6156,192
11.6213,152
11.627,0
11.6327,0
11.6385,0
11.6442,0
11.6499,0
11.6556,173
11.6614,188
11.6671,0
11.6728,162
11.6785,0
11.6842,151
11.69,0
11.6957,0
11.7014,0
11.7071,195
11.7129,0
11.7186,192
11.7243,0
11.73,0
11.7357,176
11.7415,166
11.7472,203
11.7529,151
11.7586,193
11.7643,210
11.7701,197
11.7758,0
11.7815,0
11.7872,0
11.793,212
11.7987,186
11.8044,0
11.8101,0
11.8158,174
11.8216,152
11.8273,0
11.833,190
11.8387,152
11.8445,0
11.8502,0
11.8559,0
11.8616,0
11.8673,0
11.8731,0
11.8788,0
11.8845,0
11.8902,168
11.896,0
11.9017,0
11.9074,0
11.9131,204
11.9188,155
11.9246,156
11.9303,192
11.936,168
11.9417,185
11.9475,161
11.9532,152
11.9589,0
11.9646,172
11.9703,173
11.9761,0
11.9818,191
11.9875,188
11.9932,201
11.9989,188
12.0047,270
12.0104,174
12.0161,176
12.0218,0
12.0276,162
12.0333,153
12.039,0
12.0447,176
12.0504,190
12.0562,0
12.0619,197
12.0676,194
12.0733,0
12.0791,0
12.0848,0
12.0905,158
12.0962,0
12.1019,0
12.1077,159
12.1134,186
12.1191,0
12.1248,153
12.1306,189
12.1363,0
12.142,0
12.1477,0
12.1534,0
12.1592,187
12.1649,0
12.1706,197
12.1763,235
12.1821,229
12.1878,157
12.1935,0
12.1992,187
12.2049,232
12.2107,257
12.2164,0
12.2221,0
12.2278,180
12.2335,0
12.2393,164
12.245,222
12.2507,0
12.2564,235
12.2622,159
12.2679,0
12.2736,228
12.2793,157
12.285,209
12.2908,183
12.2965,276
12.3022,163
12.3079,154
12.3137,226
12.3194,180
12.3251,0
12.3308,230
12.3365,0
12.3423,242
12.348,0
12.3537,160
12.3594,198
12.3652,269
12.3709,0
12.3766,424
12.3823,0
12.388,170
12.3938,189
12.3995,248
12.4052,172
12.4109,0
12.4167,150
12.4224,225
12.4281,224
12.4338,184
12.4395,250
12.4453,160
12.451,0
12.4567,189
12.4624,196
12.4682,223
12.4739,291
12.4796,200
12.4853,219
12.491,275
12.4968,220
12.5025,189
12.5082,228
12.5139,193
12.5196,160
12.5254,216
12.5311,169
12.5368,173
12.5425,230
12.5483,262
12.554,203
12.5597,198
12.5654,265
12.5711,269
12.5769,262
12.5826,189
12.5883,302
12.594,252
12.5998,204
12.6055,321
12.6112,239
12.6169,217
12.6226,200
12.6284,209
12.6341,153
12.6398,197
12.6455,239
12.6513,239
12.657,171
12.6627,186
12.6684,235
12.6741,175
12.6799,192
12.6856,201
12.6913,213
12.697,197
12.7028,203
12.7085,238
12.7142,253
12.7199,257
12.7256,153
12.7314,0
12.7371,275
12.7428,159
12.7485,261
12.7542,257
12.76,264
12.7657,213
12.7714,206
12.7771,194
12.7829,249
12.7886,254
12.7943,204
12.8,186
12.8057,307
12.8115,259
12.8172,286
12.8229,257
12.8286,230
12.8344,194
12.8401,425
12.8458,258
12.8515,196
12.8572,245
12.863,224
12.8687,180
12.8744,256
12.8801,229
12.8859,248
12.8916,443
12.8973,203
12.903,247
12.9087,299
12.9145,321
12.9202,184
12.9259,273
12.9316,282
12.9374,216
12.9431,326
12.9488,372
12.9545,224
12.9602,208
12.966,374
12.9717,297
12.9774,263
12.9831,254
12.9888,350
12.9946,435
13.0003,294
13.006,299
13.0117,231
13.0175,272
13.0232,280
13.0289,229
13.0346,268
13.0403,242
13.0461,334
13.0518,239
13.0575,241
13.0632,451
13.069,386
13.0747,248
13.0804,319
13.0861,411
13.0918,320
13.0976,242
13.1033,402
13.109,305
13.1147,261
13.1205,429
13.1262,344
13.1319,319
13.1376,239
13.1433,252
13.1491,341
13.1548,384
13.1605,286
13.1662,270
13.172,487
13.1777,260
13.1834,470
13.1891,306
13.1948,471
13.2006,276
13.2063,275
13.212,419
13.2177,353
13.2235,300
13.2292,365
13.2349,419
13.2406,331
13.2463,502
13.2521,205
13.2578,204
13.2635,260
13.2692,506
13.2749,273
13.2807,482
13.2864,357
13.2921,312
13.2978,212
13.3036,410
13.3093,396
13.315,325
13.3207,264
13.3264,282
13.3322,486
13.3379,251
13.3436,316
13.3493,312
13.3551,244
13.3608,542
13.3665,261
13.3722,350
13.3779,338
13.3837,453
13.3894,268
13.3951,423
13.4008,354
13.4066,663
13.4123,305
13.418,518
13.4237,298
13.4294,504
13.4352,301
13.4409,605
13.4466,267
13.4523,508
13.4581,564
13.4638,412
13.4695,347
13.4752,532
13.4809,592
13.4867,358
13.4924,473
13.4981,391
13.5038,514
13.5095,487
13.5153,545
13.521,423
13.5267,505
13.5324,580
13.5382,586
13.5439,320
13.5496,530
13.5553,397
13.561,595
13.5668,700
13.5725,508
13.5782,472
13.5839,497
13.5897,337
13.5954,345
13.6011,351
13.6068,376
13.6125,580
13.6183,644
13.624,333
13.6297,374
13.6354,479
13.6412,465
13.6469,524
13.6526,529
13.6583,508
13.664,443
13.6698,581
13.6755,395
13.6812,598
13.6869,382
13.6927,481
13.6984,538
13.7041,554
13.7098,409
13.7155,641
13.7213,631
13.727,609
13.7327,379
13.7384,599
13.7441,376
13.7499,598
13.7556,802
13.7613,621
13.767,514
13.7728,604
13.7785,658
13.7842,434
13.7899,721
13.7956,823
13.8014,763
13.8071,707
13.8128,667
13.8185,519
13.8243,605
13.83,508
13.8357,583
13.8414,809
13.8471,709
13.8529,836
13.8586,781
13.8643,591
13.87,534
13.8758,621
13.8815,436
13.8872,651
13.8929,659
13.8986,651
13.9044,595
13.9101,619
13.9158,671
13.9215,510
13.9273,576
13.933,634
13.9387,539
13.9444,626
13.9501,544
13.9559,699
13.9616,502
13.9673,606
13.973,521
13.9788,715
13.9845,679
13.9902,307
13.9959,708
14.0016,619
14.0074,722
14.0131,421
14.0188,588
14.0245,663
14.0302,609
14.036,904
14.0417,840
14.0474,568
14.0531,709
14.0589,767
14.0646,669
14.0703,758
14.076,691
14.0817,757
14.0875,676
14.0932,417
14.0989,595
14.1046,869
14.1104,509
14.1161,862
14.1218,669
14.1275,819
14.1332,739
14.139,796
14.1447,688
14.1504,628
14.1561,832
14.1619,646
14.1676,671
14.1733,664
14.179,898
14.1847,885
14.1905,968
14.1962,778
14.2019,954
14.2076,1061
14.2134,1831
14.2191,4815
14.2248,8958
14.2305,10803
14.2362,9491
14.242,6826
14.2477,4077
14.2534,2152
14.2591,1731
14.2648,1226
14.2706,1247
14.2763,974
14.282,1141
14.2877,1191
14.2935,626
14.2992,822
14.3049,781
14.3106,999
14.3163,801
14.3221,815
14.3278,868
14.3335,762
14.3392,919
14.345,788
14.3507,1020
14.3564,1024
14.3621,935
14.3678,1175
14.3736,792
14.3793,1000
14.385,1128
14.3907,719
14.3965,999
14.4022,1455
14.4079,924
14.4136,1154
14.4193,894
14.4251,1007
14.4308,783
14.4365,876
14.4422,675
14.448,806
14.4537,1102
14.4594,1136
14.4651,923
14.4708,977
14.4766,979
14.4823,1225
14.488,960
14.4937,957
14.4994,1033
14.5052,1366
14.5109,1062
14.5166,1248
14.5223,982
14.5281,864
14.5338,818
14.5395,1054
14.5452,1009
14.5509,941
14.5567,696
14.5624,829
14.5681,1110
14.5738,924
14.5796,1238
14.5853,1108
14.591,1314
14.5967,1454
14.6024,1172
14.6082,975
14.6139,1109
14.6196,1229
14.6253,1111
14.6311,1071
14.6368,1283
14.6425,1155
14.6482,951
14.6539,1108
14.6597,1126
14.6654,1083
14.6711,911
14.6768,1055
14.6826,1098
14.6883,1221
14.694,1566
14.6997,1335
14.7054,1330
14.7112,1185
14.7169,1098
14.7226,1126
14.7283,1468
14.7341,1252
14.7398,1371
14.7455,1298
14.7512,1142
14.7569,1503
14.7627,1001
14.7684,1203
14.7741,1225
14.7798,1211
14.7855,1410
14.7913,986
14.797,1418
14.8027,946
14.8084,1225
14.8142,1554
14.8199,1144
14.8256,1237
14.8313,1277
14.837,1363
14.8428,1568
14.8485,1425
14.8542,1029
14.8599,1131
14.8657,1335
14.8714,1319
14.8771,1719
14.8828,1601
14.8885,1358
14.8943,1630
14.9,1731
14.9057,1259
14.9114,1417
14.9172,1578
14.9229,1216
14.9286,1279
14.9343,1389
14.94,1417
14.9458,1488
14.9515,1516
14.9572,1748
14.9629,1701
14.9687,1462
14.9744,1667
14.9801,1679
14.9858,1553
14.9915,1501
14.9973,1501
15.003,1786
15.0087,2013
15.0144,1375
15.0201,1329
15.0259,1331
15.0316,1400
15.0373,1688
15.043,1578
15.0488,1371
15.0545,1854
15.0602,1923
15.0659,1789
15.0716,1426
15.0774,1710
15.0831,1947
15.0888,1710
15.0945,1906
15.1003,1720
15.106,1545
15.1117,1859
15.1174,1545
15.1231,1550
15.1289,1782
15.1346,1865
15.1403,1710
15.146,1740
15.1518,2152
15.1575,2166
15.1632,1776
15.1689,2109
15.1746,1702
15.1804,1485
15.1861,1948
15.1918,1738
15.1975,1759
15.2033,2176
15.209,1420
15.2147,1858
15.2204,1694
15.2261,2057
15.2319,2064
15.2376,2065
15.2433,2197
15.249,2375
15.2548,1852
15.2605,1896
15.2662,2055
15.2719,1619
15.2776,2399
15.2834,2126
15.2891,1761
15.2948,2025
15.3005,2042
15.3062,2304
15.312,1948
15.3177,2121
15.3234,2453
15.3291,1980
15.3349,1995
15.3406,2455
15.3463,2272
15.352,2661
15.3577,2160
15.3635,1833
15.3692,2306
15.3749,2004
15.3806,2459
15.3864,2266
15.3921,2664
15.3978,2282
15.4035,1913
15.4092,1948
15.415,2736
15.4207,2358
15.4264,2534
15.4321,2627
15.4379,2565
15.4436,2489
15.4493,2237
15.455,2407
15.4607,2555
15.4665,2608
15.4722,2617
15.4779,1905
15.4836,2337
15.4894,2559
15.4951,2417
15.5008,2217
15.5065,2786
15.5122,2682
15.518,2568
15.5237,2644
15.5294,2568
15.5351,2400
15.5408,2300
15.5466,2726
15.5523,2990
15.558,2825
15.5637,2217
15.5695,2419
15.5752,2978
15.5809,2637
15.5866,2310
15.5923,2667
15.5981,3032
15.6038,2420
15.6095,3064
15.6152,3073
15.621,3309
15.6267,2931
15.6324,2647
15.6381,2558
15.6438,2769
15.6496,3225
15.6553,2829
15.661,2493
15.6667,2539
15.6725,3007
15.6782,2482
15.6839,2639
15.6896,3234
15.6953,2830
15.7011,3524
15.7068,2654
15.7125,3080
15.7182,2877
15.724,3143
15.7297,3190
15.7354,3528
15.7411,2809
15.7468,3064
15.7526,3407
15.7583,2783
15.764,3244
15.7697,3704
15.7754,2821
15.7812,2751
15.7869,3208
15.7926,3751
15.7983,3263
15.8041,3247
15.8098,3037
15.8155,2737
15.8212,3236
15.8269,3712
15.8327,3151
15.8384,3251
15.8441,3305
15.8498,3188
15.8556,3070
15.8613,3407
15.867,3441
15.8727,3746
15.8784,3506
15.8842,3454
15.8899,3440
15.8956,3199
15.9013,3816
15.9071,3432
15.9128,4030
15.9185,3640
15.9242,3542
15.9299,3578
15.9357,3667
15.9414,3441
15.9471,3077
15.9528,3942
15.9586,3678
15.9643,3985
15.97,3609
15.9757,3644
15.9814,4186
15.9872,3729
15.9929,3852
15.9986,4331
16.0043,3569
16.0101,3590
16.0158,3514
16.0215,4098
16.0272,3976
16.0329,3651
16.0387,3253
16.0444,3784
16.0501,4335
16.0558,4086
16.0615,4184
16.0673,4411
16.073,3747
16.0787,4566
16.0844,3842
16.0902,4100
16.0959,4215
16.1016,3919
16.1073,3668
16.113,4204
16.1188,4316
16.1245,4661
16.1302,3906
16.1359,3744
16.1416,3933
16.1474,4098
16.1531,4176
16.1588,4246
16.1645,4329
16.1702,4286
16.176,4282
16.1817,4755
16.1874,4686
16.1931,4868
16.1989,4460
16.2046,4039
16.2103,4626
16.216,4321
16.2218,4976
16.2275,4828
16.2332,4725
16.2389,4521
16.2447,4546
16.2504,4501
16.2561,5022
16.2618,4063
16.2675,4611
16.2733,4656
16.279,5005
16.2847,4891
16.2904,4729
16.2961,4531
16.3019,5003
16.3076,4337
16.3133,4639
16.319,4863
16.3248,4704
16.3305,4940
16.3362,5383
16.3419,5112
16.3476,5067
16.3534,4875
16.3591,5167
16.3648,4604
16.3705,4931
16.3762,5272
16.382,5208
16.3877,5084
16.3934,5024
16.3991,5088
16.4049,5197
16.4106,5505
16.4163,5250
16.422,4887
16.4278,5059
16.4335,5249
16.4392,4924
16.4449,5197
16.4506,5110
16.4564,5578
16.4621,5511
16.4678,5110
16.4735,4725
16.4793,5417
16.485,5225
16.4907,5079
16.4964,5356
16.5021,5573
16.5079,5355
16.5136,5274
16.5193,5685
16.525,5706
16.5307,5534
16.5365,5223
16.5422,5745
16.5479,5666
16.5536,5428
16.5593,5833
16.5651,6614
16.5708,6139
16.5765,5871
16.5822,6263
16.588,5494
16.5937,5601
16.5994,6159
16.6051,6408
16.6108,6180
16.6166,6344
16.6223,5760
16.628,5922
16.6337,6343
16.6395,6734
16.6452,6102
16.6509,5840
16.6566,6318
16.6624,5980
16.6681,6224
16.6738,5960
16.6795,6307
16.6852,6388
16.691,6479
16.6967,6574
16.7024,6960
16.7081,6109
16.7139,6739
16.7196,6679
16.7253,6597
16.731,6453
16.7367,6115
16.7425,6621
16.7482,6609
16.7539,6770
16.7596,6372
16.7654,6756
16.7711,6659
16.7768,6985
16.7825,7011
16.7882,7026
16.7939,6415
16.7997,7062
16.8054,6700
16.8111,7408
16.8168,6932
16.8226,7058
16.8283,6487
16.834,6900
16.8397,6993
16.8455,7392
16.8512,7371
16.8569,7291
16.8626,7440
16.8683,6808
16.8741,6981
16.8798,7449
16.8855,7631
16.8912,7175
16.897,7468
16.9027,6935
16.9084,7523
16.9141,7393
16.9198,7285
16.9256,7216
16.9313,7491
16.937,7064
16.9427,7307
16.9485,7107
16.9542,7626
16.9599,7914
16.9656,7587
16.9713,7726
16.977,7918
16.9828,8129
16.9885,7602
16.9942,7700
16.9999,7671
17.0057,8316
17.0114,8112
17.0171,8296
17.0228,7677
17.0285,8004
17.0343,8368
17.04,7702
17.0457,8363
17.0514,8156
17.0572,7751
17.0629,8108
17.0686,8859
17.0743,8594
17.0801,7839
17.0858,8626
17.0915,8253
17.0972,8422
17.1029,8277
17.1087,8233
17.1144,8953
17.1201,8743
17.1258,8824
17.1316,8644
17.1373,8364
17.143,8694
17.1487,9473
17.1544,9535
17.1602,8988
17.1659,8949
17.1716,8602
17.1773,9332
17.1831,8388
17.1888,9125
17.1945,9064
17.2002,8676
17.2059,8437
17.2116,8855
17.2174,8934
17.2231,8922
17.2288,9176
17.2345,9848
17.2403,9337
17.246,9031
17.2517,9373
17.2574,9277
17.2632,10029
17.2689,9002
17.2746,9700
17.2803,9377
17.286,9544
17.2918,10656
17.2975,10070
17.3032,9812
17.3089,10291
17.3147,9816
17.3204,10014
17.3261,10272
17.3318,10370
17.3375,10136
17.3433,9944
17.349,9997
17.3547,10165
17.3604,9517
17.3662,9932
17.3719,10450
17.3776,10662
17.3833,10562
17.389,11024
17.3948,10273
17.4005,11153
17.4062,10657
17.4119,11012
17.4176,10273
17.4234,10600
17.4291,10492
17.4348,10745
17.4405,11469
17.4462,10786
17.452,10884
17.4577,10107
17.4634,10299
17.4691,10828
17.4749,10301
17.4806,12094
17.4863,10604
17.492,11574
17.4978,11269
17.5035,11172
17.5092,10737
17.5149,10436
17.5207,11902
17.5264,11240
17.5321,11140
17.5378,11567
17.5435,11596
17.5493,11148
17.555,10695
17.5607,12153
17.5664,12549
17.5721,12051
17.5779,11708
17.5836,11632
17.5893,11709
17.595,12345
17.6008,12211
17.6065,11691
17.6122,11434
17.6179,11989
17.6236,12519
17.6294,12422
17.6351,11986
17.6408,12938
17.6465,11811
17.6523,12381
17.658,12642
17.6637,12435
17.6694,11972
17.6751,11779
17.6809,11826
17.6866,11668
17.6923,13383
17.698,12268
17.7037,11865
17.7095,13024
17.7152,11517
17.7209,12673
17.7266,12991
17.7324,12970
17.7381,12358
17.7438,13167
17.7495,13562
17.7553,13499
17.761,13332
17.7667,12884
17.7724,13253
17.7781,12936
17.7839,12274
17.7896,13663
17.7953,13923
17.801,12580
17.8067,12975
17.8125,14098
17.8182,13076
17.8239,12975
17.8296,12978
17.8354,13737
17.8411,13211
17.8468,14081
17.8525,14551
17.8582,13538
17.864,14396
17.8697,13380
17.8754,14281
17.8811,14118
17.8869,14213
17.8926,13939
17.8983,13953
17.904,13959
17.9097,13672
17.9155,14538
17.9212,14075
17.9269,14855
17.9326,14138
17.9384,14304
17.9441,14862
17.9498,14888
17.9555,14018
17.9612,14744
17.967,14471
17.9727,15607
17.9784,14167
17.9841,14293
17.9899,14815
17.9956,14234
18.0013,14008
18.007,14599
18.0127,15310
18.0185,14608
18.0242,15521
18.0299,15244
18.0356,15333
18.0413,15660
18.0471,14838
18.0528,15053
18.0585,15953
18.0642,15165
18.07,15935
18.0757,15192
18.0814,14675
18.0871,15229
18.0928,15641
18.0986,15860
18.1043,16410
18.11,15472
18.1157,15599
18.1214,16389
18.1272,15195
18.1329,15530
18.1386,15189
18.1443,15598
18.1501,15164
18.1558,16763
18.1615,16583
18.1672,16021
18.173,15751
18.1787,15352
18.1844,15898
18.1901,15904
18.1958,16397
18.2016,16499
18.2073,16370
18.213,16514
18.2187,16385
18.2245,16580
18.2302,16960
18.2359,16373
18.2416,17716
18.2473,17613
18.2531,15953
18.2588,18687
18.2645,16681
18.2702,16928
18.276,17394
18.2817,17341
18.2874,16836
18.2931,17863
18.2988,16554
18.3046,16801
18.3103,17558
18.316,17312
18.3217,17237
18.3274,16693
18.3332,17547
18.3389,17752
18.3446,17879
18.3503,18177
18.3561,18231
18.3618,17433
18.3675,17363
18.3732,18106
18.3789,17128
18.3847,17542
18.3904,17993
18.3961,18258
18.4018,19182
18.4076,17916
18.4133,18267
18.419,18575
18.4247,18723
18.4304,18206
18.4362,19162
18.4419,18708
18.4476,18495
18.4533,18773
18.4591,19036
18.4648,18230
18.4705,17927
18.4762,19075
18.4819,19088
18.4877,19411
18.4934,18940
18.4991,19782
18.5048,19454
18.5106,18491
18.5163,19121
18.522,19039
18.5277,18534
18.5334,19686
18.5391,19724
18.5449,20078
18.5506,20258
18.5563,19530
18.562,18951
18.5678,19524
18.5735,17911
18.5792,18640
18.5849,19361
18.5907,20702
18.5964,19384
18.6021,19637
18.6078,18960
18.6135,19292
18.6193,19735
18.625,20619
18.6307,19724
18.6364,18988
18.6422,20765
18.6479,20367
18.6536,20080
18.6593,20673
18.665,21056
18.6708,20185
18.6765,20281
18.6822,20747
18.6879,20351
18.6937,20032
18.6994,19423
18.7051,19879
18.7108,19787
18.7165,20705
18.7223,20913
18.728,21496
18.7337,20995
18.7394,20626
18.7452,20079
18.7509,21180
18.7566,20904
18.7623,20484
18.768,21427
18.7738,21453
18.7795,20343
18.7852,20830
18.7909,20894
18.7967,20124
18.8024,21134
18.8081,21137
18.8138,21801
18.8195,21281
18.8253,21914
18.831,21783
18.8367,21275
18.8424,22528
18.8481,22052
18.8539,22161
18.8596,21340
18.8653,20618
18.871,20426
18.8768,20058
18.8825,21232
18.8882,21494
18.8939,21286
18.8996,21600
18.9054,22392
18.9111,22767
18.9168,20934
18.9225,22113
18.9283,21879
18.934,22117
18.9397,21632
18.9454,21908
18.9511,23429
18.9568,22403
18.9626,21483
18.9683,22752
18.974,21773
18.9797,21990
18.9855,22358
18.9912,22506
18.9969,22803
19.0026,21707
19.0084,22859
19.0141,22558
19.0198,23725
19.0255,21945
19.0313,22274
19.037,22171
19.0427,22602
19.0484,21759
19.0541,22034
19.0599,23924
19.0656,23182
19.0713,22074
19.077,23710
19.0827,25297
19.0885,22065
19.0942,22541
19.0999,23340
19.1056,23027
19.1114,23509
19.1171,23508
19.1228,24456
19.1285,23478
19.1342,23154
19.14,24247
19.1457,22214
19.1514,22404
19.1571,23318
19.1629,23519
19.1686,22716
19.1743,24377
19.18,22765
19.1857,23163
19.1915,22819
19.1972,23371
19.2029,23025
19.2086,23206
19.2144,22584
19.2201,22811
19.2258,23107
19.2315,22620
19.2372,23155
19.243,22232
19.2487,24476
19.2544,23825
19.2601,23009
19.2659,23751
19.2716,23506
19.2773,25240
19.283,23962
19.2887,23960
19.2945,23705
19.3002,24219
19.3059,23638
19.3116,24187
19.3173,23942
19.3231,23000
19.3288,23636
19.3345,23697
19.3402,22894
19.346,22707
19.3517,23411
19.3574,23961
19.3631,24108
19.3688,24001
19.3746,22289
19.3803,23264
19.386,23721
19.3917,23334
19.3974,22535
19.4032,23770
19.4089,23889
19.4146,23343
19.4203,22932
19.4261,23340
19.4318,23913
19.4375,23173
19.4432,23552
19.449,23307
19.4547,23821
19.4604,24002
19.4661,22911
19.4718,23180
19.4776,23889
19.4833,22698
19.489,24717
19.4947,23546
19.5005,23668
19.5062,23602
19.5119,22786
19.5176,23813
19.5233,24030
19.5291,24428
19.5348,24316
19.5405,24390
19.5462,23846
19.552,23472
19.5577,23641
19.5634,23838
19.5691,23753
19.5748,24105
19.5806,23729
19.5863,23432
19.592,23167
19.5977,23954
19.6034,23083
19.6092,23092
19.6149,23357
19.6206,22535
19.6263,23058
19.6321,23631
19.6378,22840
19.6435,23187
19.6492,23947
19.6549,22881
19.6607,23405
19.6664,22958
19.6721,22766
19.6778,22535
19.6836,23740
19.6893,23897
19.695,23101
19.7007,23179
19.7064,23573
19.7122,23416
19.7179,25013
19.7236,23591
19.7293,23530
19.7351,24298
19.7408,24369
19.7465,23489
19.7522,23407
19.7579,23118
19.7637,22639
19.7694,24287
19.7751,25064
19.7808,23130
19.7866,24402
19.7923,23858
19.798,22741
19.8037,23876
19.8094,23236
19.8152,22978
19.8209,23782
19.8266,23494
19.8323,24214
19.838,22162
19.8438,23072
19.8495,23384
19.8552,23514
19.8609,23769
19.8667,24656
19.8724,23812
19.8781,23951
19.8838,23962
19.8895,23288
19.8953,23692
19.901,23762
19.9067,23922
19.9124,24447
19.9182,23912
19.9239,23254
19.9296,24554
19.9353,24810
19.941,24477
19.9468,24314
19.9525,24696
19.9582,24926
19.9639,24168
19.9697,24000
19.9754,23442
19.9811,23520
19.9868,23581
19.9925,24113
19.9983,23558
20.004,23238
20.0097,24172
20.0154,22745
20.0212,23677
20.0269,23483
20.0326,23256
20.0383,24248
20.044,23052
20.0498,23632
20.0555,23623
20.0612,24083
20.0669,24302
20.0726,24023
20.0784,24090
20.0841,23713
20.0898,22880
20.0955,23770
20.1013,24451
20.107,22705
20.1127,23420
20.1184,22651
20.1241,22794
20.1299,23007
20.1356,23366
20.1413,23893
20.147,23676
20.1528,23689
20.1585,23637
20.1642,23649
20.1699,23093
20.1756,23171
20.1814,22993
20.1871,24355
20.1928,23346
20.1985,24193
20.2043,24688
20.21,25033
20.2157,23372
20.2214,25745
20.2271,23109
20.2329,24632
20.2386,24786
20.2443,23614
20.25,23995
20.2558,23878
20.2615,25246
20.2672,24167
20.2729,23891
20.2786,23022
20.2844,24603
20.2901,23425
20.2958,23900
20.3015,23355
20.3073,24072
20.313,25155
20.3187,24386
20.3244,23061
20.3301,24536
20.3359,23540
20.3416,23556
20.3473,23981
20.353,23178
20.3587,24030
20.3645,23077
20.3702,24038
20.3759,22868
20.3816,23570
20.3874,23424
20.3931,24214
20.3988,23928
20.4045,23894
20.4102,23626
20.416,24236
20.4217,23699
20.4274,23811
20.4331,24411
20.4389,23335
20.4446,23505
20.4503,24200
20.456,24876
20.4617,22885
20.4674,22786
20.4732,23440
20.4789,23491
20.4846,23532
20.4903,23275
20.4961,24332
20.5018,23462
20.5075,24846
20.5132,24214
20.519,23458
20.5247,24202
20.5304,23098
20.5361,24577
20.5419,23632
20.5476,23975
20.5533,25112
20.559,23774
20.5647,24187
20.5705,22855
20.5762,23526
20.5819,24580
20.5876,23964
20.5933,23558
20.5991,24362
20.6048,24843
20.6105,24358
20.6162,24400
20.622,24248
20.6277,22747
20.6334,23583
20.6391,23175
20.6448,23542
20.6506,23718
20.6563,23866
20.662,24983
20.6677,23996
20.6735,25448
20.6792,23610
20.6849,23724
20.6906,23191
20.6963,22649
20.7021,24072
20.7078,23819
20.7135,23887
20.7192,22898
20.725,23727
20.7307,23566
20.7364,22958
20.7421,24422
20.7478,23669
20.7536,24198
20.7593,23587
20.765,24594
20.7707,22971
20.7765,24678
20.7822,23996
20.7879,23797
20.7936,25051
20.7993,23070
20.8051,24374
20.8108,24178
20.8165,22660
20.8222,23712
20.8279,24375
20.8337,24089
20.8394,23530
20.8451,23536
20.8508,23531
20.8566,23738
20.8623,24404
20.868,23800
20.8737,23027
20.8794,24357
20.8852,24280
20.8909,25572
20.8966,23156
20.9023,23809
20.908,23927
20.9138,24367
20.9195,24452
20.9252,24822
20.9309,22918
20.9367,23775
20.9424,23257
20.9481,23095
20.9538,24457
20.9596,23307
20.9653,24035
20.971,24154
20.9767,23722
20.9824,23685
20.9882,23904
20.9939,24781
20.9996,24606
21.0053,24433
21.0111,23946
21.0168,23523
21.0225,23240
21.0282,24868
21.0339,23856
21.0397,24441
21.0454,23640
21.0511,24205
21.0568,23760
21.0626,23050
21.0683,24392
21.074,24146
21.0797,24328
21.0854,24565
21.0912,24929
21.0969,23865
21.1026,23977
21.1083,24115
21.114,24838
21.1198,24131
21.1255,24806
21.1312,24319
21.1369,24588
21.1427,24676
21.1484,24277
21.1541,24783
21.1598,23432
21.1655,24530
21.1713,23349
21.177,23657
21.1827,23509
21.1884,24218
21.1942,23883
21.1999,24232
21.2056,24354
21.2113,24953
21.217,24199
21.2228,23997
21.2285,23893
21.2342,23195
21.2399,23692
21.2457,24891
21.2514,23594
21.2571,23972
21.2628,24739
21.2685,24172
21.2743,24176
21.28,23689
21.2857,25097
21.2914,23081
21.2972,23702
21.3029,25214
21.3086,24612
21.3143,24141
21.32,23354
21.3257,24663
21.3315,23774
21.3372,23937
21.3429,23181
21.3486,23296
21.3544,23891
21.3601,23890
21.3658,24742
21.3715,22910
21.3773,22819
21.383,24469
21.3887,24927
21.3944,23845
21.4001,23795
21.4059,24967
21.4116,25506
21.4173,25853
21.423,24265
21.4288,25110
21.4345,22587
21.4402,24164
21.4459,23305
21.4516,24345
21.4574,24538
21.4631,22196
21.4688,25135
21.4745,23154
21.4803,23889
21.486,22755
21.4917,23833
21.4974,24107
21.5031,24843
21.5089,25161
21.5146,23964
21.5203,23983
21.526,24479
21.5318,23105
21.5375,23714
21.5432,23961
21.5489,23472
21.5546,24935
21.5604,23250
21.5661,24319
21.5718,24157
21.5775,22575
21.5832,23496
21.589,23706
21.5947,23368
21.6004,23639
21.6061,24207
21.6119,24126
21.6176,24063
21.6233,24335
21.629,25155
21.6347,24453
21.6405,25090
21.6462,23348
21.6519,24114
21.6576,23677
21.6634,24287
21.6691,23793
21.6748,24331
21.6805,24897
21.6862,24628
21.692,24055
21.6977,23086
21.7034,24596
21.7091,23757
21.7149,23813
21.7206,23792
21.7263,23196
21.732,23703
21.7377,23796
21.7434,23409
21.7492,22646
21.7549,24438
21.7606,23839
21.7664,24148
21.7721,24135
21.7778,24416
21.7835,23986
21.7892,23620
21.795,24291
21.8007,23228
21.8064,23149
21.8121,24461
21.8179,24588
21.8236,24083
21.8293,23997
21.835,23403
21.8407,24678
21.8465,23826
21.8522,24229
21.8579,24029
21.8636,24232
21.8693,23563
21.8751,24682
21.8808,24235
21.8865,23411
21.8922,25355
21.898,25020
21.9037,23130
21.9094,24559
21.9151,25515
21.9208,24243
21.9266,24597
21.9323,24384
21.938,23574
21.9437,23254
21.9495,25531
21.9552,24138
21.9609,23376
21.9666,24254
21.9723,23828
21.9781,24980
21.9838,23490
21.9895,24024
21.9952,24151
22.001,24715
22.0067,24199
22.0124,24142
22.0181,24211
22.0238,24042
22.0296,23256
22.0353,24069
22.041,24281
22.0467,23887
22.0525,23459
22.0582,25394
22.0639,24399
22.0696,23980
22.0753,23879
22.0811,22795
22.0868,24929
22.0925,24289
22.0982,25758
22.1039,23847
22.1097,24422
22.1154,23861
22.1211,23946
22.1268,24398
22.1326,23672
22.1383,24274
22.144,23844
22.1497,24379
22.1554,23602
22.1612,23069
22.1669,23808
22.1726,23756
22.1783,23124
22.1841,23815
22.1898,24392
22.1955,24908
22.2012,24750
22.2069,24244
22.2127,23272
22.2184,24658
22.2241,25204
22.2298,24482
22.2356,23895
22.2413,23816
22.247,22669
22.2527,24876
22.2584,23860
22.2642,24239
22.2699,24355
22.2756,24000
22.2813,23581
22.2871,23557
22.2928,24594
22.2985,24065
22.3042,23972
22.3099,24364
22.3157,25395
22.3214,24145
22.3271,23223
22.3328,24220
22.3386,24177
22.3443,24006
22.35,23967
22.3557,24698
22.3614,23763
22.3672,24557
22.3729,24663
22.3786,24012
22.3843,24420
22.39,23812
22.3958,24062
22.4015,24055
22.4072,23102
22.4129,23272
22.4187,23815
22.4244,23648
22.4301,23841
22.4358,22968
22.4415,24813
22.4473,24846
22.453,24384
22.4587,23884
22.4644,24752
22.4702,23542
22.4759,25057
22.4816,23104
22.4873,23883
22.493,23629
