C:\MSDCHEM\1\DATA\MANDKHAI\20180626 MTH_C12COA\SLR_NltAB_E57A_French_1.d 27 Jun 18   1:21 pm
Start of data points
5.0927,159
5.09842,390
5.10413,251
5.10987,153
5.11558,250
5.1213,443
5.12702,175
5.13275,189
5.13847,216
5.14418,451
5.14992,0
5.15563,219
5.16135,302
5.16708,213
5.1728,305
5.17852,217
5.18425,260
5.18997,365
5.19568,214
5.20142,371
5.20713,227
5.21285,214
5.21858,0
5.2243,0
5.23002,178
5.23575,0
5.24147,162
5.24718,198
5.2529,0
5.25863,204
5.26435,0
5.27007,167
5.2758,155
5.28152,0
5.28723,171
5.29297,0
5.29868,162
5.3044,0
5.31013,0
5.31585,0
5.32157,190
5.3273,0
5.33302,382
5.33873,177
5.34447,0
5.35018,172
5.3559,161
5.36163,192
5.36735,176
5.37307,0
5.37878,213
5.38452,0
5.39023,0
5.39595,197
5.40168,163
5.4074,182
5.41312,0
5.41885,183
5.42457,0
5.43028,170
5.43602,0
5.44173,169
5.44745,183
5.45318,180
5.4589,178
5.46462,0
5.47035,0
5.47607,0
5.48178,0
5.48752,166
5.49323,184
5.49895,204
5.50467,0
5.5104,0
5.51612,165
5.52183,0
5.52757,0
5.53328,169
5.539,150
5.54473,0
5.55045,0
5.55617,0
5.5619,0
5.56762,0
5.57333,165
5.57907,0
5.58478,204
5.5905,0
5.59623,0
5.60195,158
5.60767,0
5.6134,0
5.61912,0
5.62483,221
5.63055,0
5.63628,0
5.642,180
5.64772,203
5.65345,0
5.65917,0
5.66488,202
5.67062,0
5.67633,0
5.68205,0
5.68778,0
5.6935,0
5.69922,0
5.70495,0
5.71067,0
5.71638,170
5.72212,0
5.72783,0
5.73355,150
5.73928,166
5.745,0
5.75072,0
5.75643,0
5.76217,0
5.76788,156
5.7736,0
5.77933,168
5.78505,0
5.79077,185
5.7965,253
5.80222,159
5.80793,151
5.81367,0
5.81938,186
5.8251,0
5.83083,0
5.83655,0
5.84227,0
5.848,160
5.85372,0
5.85943,0
5.86517,0
5.87088,162
5.8766,0
5.88232,0
5.88805,0
5.89377,0
5.89948,0
5.90522,0
5.91093,0
5.91665,0
5.92238,0
5.9281,0
5.93382,0
5.93955,0
5.94527,154
5.95098,0
5.95672,0
5.96243,0
5.96815,0
5.97388,0
5.9796,0
5.98532,169
5.99105,0
5.99677,179
6.00248,0
6.0082,0
6.01393,0
6.01965,179
6.02537,0
6.0311,0
6.03682,156
6.04253,201
6.04827,0
6.05398,0
6.0597,0
6.06543,0
6.07115,0
6.07687,0
6.0826,0
6.08832,0
6.09403,0
6.09977,0
6.10548,0
6.1112,0
6.11693,159
6.12265,0
6.12837,0
6.13408,0
6.13982,0
6.14553,0
6.15125,0
6.15698,0
6.1627,0
6.16842,0
6.17415,0
6.17987,0
6.18558,0
6.19132,157
6.19703,0
6.20275,0
6.20848,0
6.2142,0
6.21992,152
6.22565,0
6.23137,0
6.23708,0
6.24282,171
6.24853,165
6.25425,154
6.25997,0
6.2657,151
6.27142,0
6.27713,0
6.28287,0
6.28858,0
6.2943,0
6.30003,0
6.30575,0
6.31147,0
6.3172,163
6.32292,0
6.32863,0
6.33437,0
6.34008,0
6.3458,195
6.35153,0
6.35725,157
6.36297,0
6.3687,163
6.37442,0
6.38013,0
6.38585,0
6.39158,166
6.3973,0
6.40302,0
6.40875,0
6.41447,156
6.42018,0
6.42592,0
6.43163,0
6.43735,0
6.44308,153
6.4488,0
6.45452,0
6.46025,0
6.46597,187
6.47168,164
6.47742,0
6.48313,180
6.48885,0
6.49458,0
6.5003,0
6.50602,0
6.51173,0
6.51747,0
6.52318,0
6.5289,0
6.53463,187
6.54035,225
6.54607,238
6.5518,209
6.55752,407
6.56323,305
6.56897,267
6.57468,193
6.5804,187
6.58613,337
6.59185,0
6.59757,0
6.6033,0
6.60902,0
6.61473,0
6.62047,0
6.62618,0
6.6319,0
6.63762,0
6.64335,0
6.64907,162
6.65478,0
6.66052,0
6.66623,0
6.67195,0
6.67768,0
6.6834,0
6.68912,0
6.69485,0
6.70057,180
6.70628,150
6.71202,0
6.71773,0
6.72345,179
6.72918,0
6.7349,194
6.74062,207
6.74635,0
6.75207,332
6.75778,0
6.7635,212
6.76923,298
6.77495,164
6.78067,0
6.7864,181
6.79212,158
6.79783,161
6.80357,170
6.80928,166
6.815,0
6.82073,220
6.82645,0
6.83217,174
6.8379,0
6.84362,0
6.84933,150
6.85507,0
6.86078,0
6.8665,0
6.87223,0
6.87795,0
6.88367,0
6.88938,0
6.89512,0
6.90083,0
6.90655,0
6.91228,0
6.918,163
6.92372,0
6.92945,0
6.93517,0
6.94088,0
6.94662,0
6.95233,0
6.95805,0
6.96378,170
6.9695,0
6.97522,0
6.98095,0
6.98667,0
6.99238,0
6.99812,0
7.00383,0
7.00955,0
7.01528,0
7.021,0
7.02672,0
7.03243,0
7.03817,0
7.04388,0
7.0496,0
7.05533,0
7.06105,0
7.06677,0
7.0725,0
7.07822,0
7.08393,0
7.08967,0
7.09538,0
7.1011,0
7.10683,0
7.11255,0
7.11827,0
7.124,0
7.12972,0
7.13543,155
7.14117,212
7.14688,0
7.1526,165
7.15832,0
7.16405,0
7.16977,0
7.17548,0
7.18122,0
7.18693,0
7.19265,0
7.19838,0
7.2041,0
7.20982,0
7.21555,0
7.22127,0
7.22698,159
7.23272,0
7.23843,0
7.24415,0
7.24988,0
7.2556,0
7.26132,0
7.26705,0
7.27277,0
7.27848,0
7.2842,0
7.28993,0
7.29565,0
7.30137,0
7.3071,0
7.31282,0
7.31853,0
7.32427,0
7.32998,0
7.3357,0
7.34143,0
7.34715,0
7.35287,0
7.3586,0
7.36432,0
7.37003,0
7.37577,0
7.38148,0
7.3872,0
7.39293,0
7.39865,0
7.40437,0
7.41008,0
7.41582,0
7.42153,0
7.42725,0
7.43298,0
7.4387,0
7.44442,0
7.45015,0
7.45587,0
7.46158,0
7.46732,0
7.47303,0
7.47875,0
7.48448,0
7.4902,0
7.49592,0
7.50165,0
7.50737,0
7.51308,0
7.51882,0
7.52453,0
7.53025,0
7.53597,0
7.5417,0
7.54742,0
7.55313,0
7.55887,0
7.56458,0
7.5703,0
7.57603,0
7.58175,0
7.58747,0
7.5932,0
7.59892,0
7.60463,0
7.61037,0
7.61608,0
7.6218,0
7.62753,0
7.63325,0
7.63897,0
7.6447,0
7.65042,0
7.65613,0
7.66185,0
7.66758,0
7.6733,0
7.67902,0
7.68475,0
7.69047,0
7.69618,0
7.70192,0
7.70763,0
7.71335,0
7.71908,0
7.7248,0
7.73052,0
7.73625,0
7.74197,0
7.74768,0
7.75342,0
7.75913,0
7.76485,0
7.77058,0
7.7763,0
7.78202,0
7.78773,0
7.79347,0
7.79918,0
7.8049,0
7.81063,0
7.81635,0
7.82207,0
7.8278,0
7.83352,0
7.83923,0
7.84497,0
7.85068,0
7.8564,152
7.86213,0
7.86785,0
7.87357,0
7.8793,0
7.88502,0
7.89073,0
7.89647,0
7.90218,0
7.9079,0
7.91362,0
7.91935,0
7.92507,0
7.93078,0
7.93652,0
7.94223,0
7.94795,0
7.95368,0
7.9594,0
7.96512,0
7.97085,0
7.97657,0
7.98228,0
7.98802,0
7.99373,0
7.99945,0
8.00518,0
8.0109,0
8.01662,0
8.02235,0
8.02807,0
8.03378,0
8.0395,0
8.04523,0
8.05095,0
8.05667,0
8.0624,0
8.06812,0
8.07383,0
8.07957,0
8.08528,0
8.091,0
8.09673,0
8.10245,0
8.10817,0
8.1139,0
8.11962,0
8.12533,0
8.13107,0
8.13678,0
8.1425,0
8.14823,0
8.15395,0
8.15967,0
8.16538,0
8.17112,0
8.17683,0
8.18255,0
8.18828,0
8.194,0
8.19972,0
8.20545,0
8.21117,0
8.21688,0
8.22262,0
8.22833,0
8.23405,0
8.23978,0
8.2455,0
8.25122,0
8.25695,0
8.26267,0
8.26838,0
8.27412,0
8.27983,0
8.28555,0
8.29127,0
8.297,0
8.30272,0
8.30843,0
8.31417,165
8.31988,0
8.3256,155
8.33133,0
8.33705,0
8.34277,0
8.3485,0
8.35422,0
8.35993,0
8.36567,0
8.37138,0
8.3771,0
8.38283,0
8.38855,0
8.39427,0
8.4,0
8.40572,0
8.41143,0
8.41715,0
8.42288,0
8.4286,0
8.43432,0
8.44005,0
8.44577,0
8.45148,0
8.45722,0
8.46293,154
8.46865,164
8.47438,188
8.4801,159
8.48582,179
8.49155,162
8.49727,0
8.50298,0
8.50872,153
8.51443,0
8.52015,0
8.52588,0
8.5316,0
8.53732,0
8.54303,0
8.54877,0
8.55448,0
8.5602,0
8.56593,0
8.57165,0
8.57737,0
8.5831,0
8.58882,0
8.59453,0
8.60027,0
8.60598,0
8.6117,0
8.61743,0
8.62315,0
8.62887,0
8.6346,0
8.64032,0
8.64603,0
8.65177,0
8.65748,0
8.6632,0
8.66892,0
8.67465,0
8.68037,0
8.68608,0
8.69182,0
8.69753,0
8.70325,0
8.70898,0
8.7147,0
8.72042,0
8.72615,0
8.73187,0
8.73758,0
8.74332,0
8.74903,0
8.75475,0
8.76048,0
8.7662,0
8.77192,0
8.77765,0
8.78337,0
8.78908,0
8.7948,0
8.80053,0
8.80625,0
8.81197,0
8.8177,0
8.82342,0
8.82913,0
8.83487,0
8.84058,0
8.8463,0
8.85203,0
8.85775,0
8.86347,0
8.8692,0
8.87492,0
8.88063,0
8.88637,0
8.89208,0
8.8978,0
8.90353,0
8.90925,0
8.91497,0
8.92068,0
8.92642,0
8.93213,0
8.93785,0
8.94358,0
8.9493,0
8.95502,0
8.96075,0
8.96647,0
8.97218,0
8.97792,0
8.98363,0
8.98935,0
8.99508,0
9.0008,0
9.00652,0
9.01225,0
9.01797,0
9.02368,0
9.02942,0
9.03513,0
9.04085,0
9.04657,0
9.0523,0
9.05802,0
9.06373,0
9.06947,0
9.07518,0
9.0809,0
9.08663,0
9.09235,0
9.09807,0
9.1038,0
9.10952,0
9.11523,0
9.12097,0
9.12668,0
9.1324,0
9.13813,0
9.14385,0
9.14957,0
9.1553,0
9.16102,0
9.16673,0
9.17245,186
9.17818,0
9.1839,0
9.18962,0
9.19535,0
9.20107,0
9.20678,0
9.21252,0
9.21823,0
9.22395,0
9.22968,0
9.2354,0
9.24112,0
9.24685,0
9.25257,0
9.25828,0
9.26402,0
9.26973,0
9.27545,0
9.28118,0
9.2869,0
9.29262,0
9.29833,0
9.30407,0
9.30978,0
9.3155,0
9.32123,0
9.32695,0
9.33267,0
9.3384,0
9.34412,0
9.34983,0
9.35557,0
9.36128,0
9.367,0
9.37273,0
9.37845,0
9.38417,0
9.3899,0
9.39562,0
9.40133,0
9.40707,0
9.41278,0
9.4185,0
9.42422,0
9.42995,0
9.43567,0
9.44138,0
9.44712,0
9.45283,0
9.45855,0
9.46428,0
9.47,0
9.47572,0
9.48145,0
9.48717,0
9.49288,0
9.49862,0
9.50433,168
9.51005,0
9.51578,0
9.5215,0
9.52722,0
9.53295,0
9.53867,0
9.54438,0
9.5501,0
9.55583,0
9.56155,0
9.56727,0
9.573,0
9.57872,0
9.58443,0
9.59017,0
9.59588,0
9.6016,0
9.60733,0
9.61305,0
9.61877,0
9.6245,0
9.63022,0
9.63593,0
9.64167,0
9.64738,0
9.6531,0
9.65883,0
9.66455,0
9.67027,0
9.67598,0
9.68172,0
9.68743,0
9.69315,0
9.69888,0
9.7046,0
9.71032,0
9.71605,0
9.72177,0
9.72748,0
9.73322,0
9.73893,0
9.74465,0
9.75038,0
9.7561,0
9.76182,0
9.76755,0
9.77327,0
9.77898,0
9.78472,0
9.79043,0
9.79615,0
9.80187,0
9.8076,0
9.81332,0
9.81903,0
9.82477,184
9.83048,0
9.8362,0
9.84193,0
9.84765,0
9.85337,0
9.8591,0
9.86482,0
9.87053,0
9.87627,0
9.88198,0
9.8877,0
9.89343,0
9.89915,0
9.90487,0
9.9106,0
9.91632,0
9.92203,0
9.92775,0
9.93348,0
9.9392,0
9.94492,0
9.95065,153
9.95637,0
9.96208,0
9.96782,0
9.97353,0
9.97925,0
9.98498,176
9.9907,0
9.99642,0
10.0022,0
10.0079,0
10.0136,0
10.0193,0
10.025,0
10.0308,0
10.0365,0
10.0422,0
10.0479,0
10.0536,0
10.0594,0
10.0651,0
10.0708,0
10.0765,0
10.0823,0
10.088,0
10.0937,0
10.0994,158
10.1051,0
10.1109,0
10.1166,0
10.1223,0
10.128,0
10.1338,0
10.1395,0
10.1452,0
10.1509,0
10.1566,0
10.1624,0
10.1681,0
10.1738,0
10.1795,0
10.1853,0
10.191,0
10.1967,0
10.2024,0
10.2081,0
10.2139,0
10.2196,0
10.2253,0
10.231,0
10.2368,0
10.2425,0
10.2482,0
10.2539,0
10.2596,0
10.2654,0
10.2711,0
10.2768,0
10.2825,0
10.2883,0
10.294,0
10.2997,0
10.3054,0
10.3111,0
10.3169,0
10.3226,0
10.3283,0
10.334,0
10.3397,0
10.3455,0
10.3512,0
10.3569,0
10.3626,0
10.3684,0
10.3741,0
10.3798,0
10.3855,0
10.3912,0
10.397,0
10.4027,0
10.4084,0
10.4141,0
10.4199,0
10.4256,0
10.4313,0
10.437,0
10.4427,0
10.4485,0
10.4542,0
10.4599,0
10.4656,0
10.4714,0
10.4771,0
10.4828,0
10.4885,0
10.4942,157
10.5,0
10.5057,0
10.5114,0
10.5171,0
10.5229,0
10.5286,0
10.5343,0
10.54,0
10.5457,0
10.5515,0
10.5572,0
10.5629,0
10.5686,0
10.5743,0
10.5801,0
10.5858,0
10.5915,0
10.5972,0
10.603,0
10.6087,0
10.6144,0
10.6201,0
10.6258,0
10.6316,0
10.6373,0
10.643,0
10.6487,0
10.6545,0
10.6602,0
10.6659,0
10.6716,0
10.6773,0
10.6831,0
10.6888,0
10.6945,0
10.7002,0
10.706,0
10.7117,0
10.7174,0
10.7231,0
10.7288,0
10.7346,0
10.7403,0
10.746,0
10.7517,0
10.7575,0
10.7632,0
10.7689,0
10.7746,0
10.7803,0
10.7861,0
10.7918,0
10.7975,0
10.8032,0
10.809,0
10.8147,0
10.8204,168
10.8261,0
10.8318,0
10.8376,0
10.8433,0
10.849,0
10.8547,0
10.8604,0
10.8662,0
10.8719,156
10.8776,0
10.8833,0
10.8891,0
10.8948,0
10.9005,0
10.9062,0
10.9119,0
10.9177,0
10.9234,0
10.9291,0
10.9348,0
10.9406,0
10.9463,0
10.952,0
10.9577,0
10.9634,0
10.9692,0
10.9749,0
10.9806,0
10.9863,0
10.9921,0
10.9978,0
11.0035,193
11.0092,0
11.0149,0
11.0207,0
11.0264,0
11.0321,0
11.0378,0
11.0436,0
11.0493,187
11.055,0
11.0607,0
11.0664,0
11.0722,0
11.0779,0
11.0836,177
11.0893,0
11.095,0
11.1008,0
11.1065,152
11.1122,0
11.1179,0
11.1237,0
11.1294,0
11.1351,0
11.1408,0
11.1465,0
11.1523,0
11.158,0
11.1637,154
11.1694,0
11.1752,0
11.1809,0
11.1866,0
11.1923,174
11.198,160
11.2038,0
11.2095,0
11.2152,0
11.2209,0
11.2267,0
11.2324,0
11.2381,0
11.2438,0
11.2495,0
11.2553,169
11.261,0
11.2667,0
11.2724,0
11.2782,0
11.2839,162
11.2896,0
11.2953,0
11.301,0
11.3068,0
11.3125,0
11.3182,0
11.3239,179
11.3296,193
11.3354,0
11.3411,0
11.3468,169
11.3525,0
11.3583,0
11.364,156
11.3697,0
11.3754,0
11.3811,151
11.3869,0
11.3926,0
11.3983,219
11.404,0
11.4098,0
11.4155,157
11.4212,177
11.4269,158
11.4326,0
11.4384,0
11.4441,0
11.4498,0
11.4555,0
11.4613,0
11.467,0
11.4727,164
11.4784,0
11.4841,0
11.4899,0
11.4956,161
11.5013,0
11.507,0
11.5128,0
11.5185,192
11.5242,190
11.5299,0
11.5356,0
11.5414,0
11.5471,0
11.5528,0
11.5585,191
11.5643,0
11.57,166
11.5757,0
11.5814,0
11.5871,0
11.5929,0
11.5986,0
11.6043,0
11.61,0
11.6157,151
11.6215,214
11.6272,236
11.6329,0
11.6386,181
11.6444,0
11.6501,0
11.6558,0
11.6615,161
11.6672,0
11.673,180
11.6787,0
11.6844,0
11.6901,0
11.6959,0
11.7016,162
11.7073,171
11.713,0
11.7187,0
11.7245,0
11.7302,0
11.7359,0
11.7416,0
11.7474,0
11.7531,160
11.7588,181
11.7645,157
11.7702,0
11.776,230
11.7817,171
11.7874,0
11.7931,201
11.7989,178
11.8046,0
11.8103,0
11.816,0
11.8217,171
11.8275,185
11.8332,223
11.8389,0
11.8446,0
11.8503,195
11.8561,0
11.8618,162
11.8675,194
11.8732,0
11.879,0
11.8847,184
11.8904,223
11.8961,0
11.9018,0
11.9076,0
11.9133,150
11.919,198
11.9247,0
11.9305,0
11.9362,175
11.9419,0
11.9476,182
11.9533,0
11.9591,0
11.9648,0
11.9705,201
11.9762,0
11.982,0
11.9877,0
11.9934,194
11.9991,158
12.0048,150
12.0106,0
12.0163,0
12.022,188
12.0277,0
12.0335,204
12.0392,169
12.0449,0
12.0506,0
12.0563,214
12.0621,184
12.0678,161
12.0735,214
12.0792,170
12.0849,204
12.0907,214
12.0964,174
12.1021,190
12.1078,187
12.1136,0
12.1193,196
12.125,0
12.1307,187
12.1364,155
12.1422,0
12.1479,166
12.1536,158
12.1593,0
12.1651,0
12.1708,208
12.1765,221
12.1822,200
12.1879,153
12.1937,216
12.1994,186
12.2051,205
12.2108,192
12.2166,188
12.2223,198
12.228,233
12.2337,154
12.2394,0
12.2452,183
12.2509,203
12.2566,0
12.2623,0
12.2681,0
12.2738,247
12.2795,189
12.2852,192
12.2909,173
12.2967,168
12.3024,203
12.3081,150
12.3138,221
12.3196,236
12.3253,0
12.331,0
12.3367,0
12.3424,189
12.3482,259
12.3539,170
12.3596,228
12.3653,267
12.371,155
12.3768,290
12.3825,257
12.3882,165
12.3939,184
12.3997,0
12.4054,231
12.4111,152
12.4168,248
12.4225,155
12.4283,159
12.434,204
12.4397,337
12.4454,223
12.4512,227
12.4569,230
12.4626,169
12.4683,202
12.474,250
12.4798,0
12.4855,212
12.4912,178
12.4969,249
12.5027,0
12.5084,167
12.5141,210
12.5198,168
12.5255,258
12.5313,199
12.537,187
12.5427,343
12.5484,235
12.5542,188
12.5599,0
12.5656,274
12.5713,192
12.577,242
12.5828,354
12.5885,190
12.5942,217
12.5999,388
12.6056,242
12.6114,169
12.6171,194
12.6228,0
12.6285,0
12.6343,436
12.64,0
12.6457,0
12.6514,208
12.6571,212
12.6629,367
12.6686,160
12.6743,162
12.68,290
12.6858,240
12.6915,246
12.6972,205
12.7029,0
12.7086,244
12.7144,156
12.7201,216
12.7258,262
12.7315,166
12.7373,177
12.743,203
12.7487,300
12.7544,323
12.7601,232
12.7659,239
12.7716,240
12.7773,205
12.783,222
12.7888,235
12.7945,202
12.8002,276
12.8059,261
12.8116,231
12.8174,187
12.8231,200
12.8288,269
12.8345,273
12.8402,259
12.846,223
12.8517,188
12.8574,305
12.8631,209
12.8689,289
12.8746,252
12.8803,262
12.886,303
12.8917,219
12.8975,240
12.9032,276
12.9089,224
12.9146,242
12.9204,288
12.9261,219
12.9318,211
12.9375,217
12.9432,216
12.949,368
12.9547,245
12.9604,594
12.9661,237
12.9719,247
12.9776,369
12.9833,337
12.989,224
12.9947,198
13.0005,226
13.0062,318
13.0119,201
13.0176,238
13.0234,232
13.0291,350
13.0348,480
13.0405,218
13.0462,205
13.052,292
13.0577,306
13.0634,305
13.0691,298
13.0749,196
13.0806,268
13.0863,321
13.092,189
13.0977,259
13.1035,235
13.1092,280
13.1149,267
13.1206,329
13.1263,305
13.1321,213
13.1378,276
13.1435,469
13.1492,255
13.155,456
13.1607,491
13.1664,470
13.1721,236
13.1778,453
13.1836,486
13.1893,336
13.195,501
13.2007,250
13.2065,251
13.2122,220
13.2179,267
13.2236,450
13.2293,467
13.2351,285
13.2408,289
13.2465,287
13.2522,234
13.258,326
13.2637,388
13.2694,258
13.2751,231
13.2808,311
13.2866,389
13.2923,461
13.298,274
13.3037,526
13.3095,217
13.3152,557
13.3209,453
13.3266,398
13.3323,434
13.3381,292
13.3438,296
13.3495,336
13.3552,227
13.3609,467
13.3667,393
13.3724,530
13.3781,588
13.3838,471
13.3896,512
13.3953,330
13.401,394
13.4067,427
13.4124,300
13.4182,698
13.4239,541
13.4296,324
13.4353,540
13.4411,639
13.4468,513
13.4525,298
13.4582,521
13.4639,427
13.4697,447
13.4754,540
13.4811,531
13.4868,277
13.4926,429
13.4983,216
13.504,511
13.5097,284
13.5154,383
13.5212,290
13.5269,339
13.5326,415
13.5383,237
13.5441,270
13.5498,386
13.5555,686
13.5612,347
13.5669,442
13.5727,581
13.5784,613
13.5841,690
13.5898,353
13.5955,601
13.6013,569
13.607,449
13.6127,462
13.6184,534
13.6242,514
13.6299,588
13.6356,641
13.6413,567
13.647,660
13.6528,280
13.6585,648
13.6642,645
13.6699,536
13.6757,394
13.6814,342
13.6871,431
13.6928,619
13.6985,315
13.7043,531
13.71,438
13.7157,327
13.7214,375
13.7272,540
13.7329,347
13.7386,635
13.7443,669
13.75,593
13.7558,395
13.7615,376
13.7672,398
13.7729,281
13.7787,650
13.7844,798
13.7901,538
13.7958,556
13.8015,591
13.8073,624
13.813,591
13.8187,478
13.8244,607
13.8302,567
13.8359,660
13.8416,632
13.8473,592
13.853,601
13.8588,729
13.8645,725
13.8702,599
13.8759,396
13.8816,653
13.8874,621
13.8931,649
13.8988,367
13.9045,549
13.9103,694
13.916,670
13.9217,596
13.9274,774
13.9331,722
13.9389,684
13.9446,658
13.9503,568
13.956,806
13.9618,891
13.9675,657
13.9732,786
13.9789,725
13.9846,674
13.9904,727
13.9961,431
14.0018,694
14.0075,650
14.0133,571
14.019,658
14.0247,852
14.0304,786
14.0361,407
14.0419,665
14.0476,726
14.0533,642
14.059,618
14.0648,546
14.0705,713
14.0762,591
14.0819,783
14.0876,719
14.0934,636
14.0991,1062
14.1048,766
14.1105,597
14.1162,683
14.122,790
14.1277,886
14.1334,763
14.1391,781
14.1449,763
14.1506,757
14.1563,778
14.162,753
14.1677,721
14.1735,680
14.1792,615
14.1849,906
14.1906,763
14.1964,877
14.2021,596
14.2078,866
14.2135,1381
14.2192,4001
14.225,5770
14.2307,7510
14.2364,5776
14.2421,4460
14.2479,2567
14.2536,1528
14.2593,1345
14.265,1172
14.2707,1337
14.2765,1059
14.2822,920
14.2879,838
14.2936,945
14.2994,742
14.3051,818
14.3108,763
14.3165,887
14.3222,642
14.328,1071
14.3337,803
14.3394,829
14.3451,772
14.3509,1241
14.3566,1037
14.3623,1056
14.368,821
14.3737,1077
14.3795,938
14.3852,1013
14.3909,1080
14.3966,778
14.4023,1025
14.4081,1133
14.4138,1248
14.4195,737
14.4252,809
14.431,849
14.4367,1002
14.4424,1145
14.4481,1185
14.4538,1004
14.4596,1415
14.4653,882
14.471,969
14.4767,973
14.4825,1058
14.4882,1091
14.4939,876
14.4996,974
14.5053,1265
14.5111,1180
14.5168,1233
14.5225,926
14.5282,942
14.534,1201
14.5397,991
14.5454,860
14.5511,1016
14.5568,1071
14.5626,1011
14.5683,928
14.574,1198
14.5797,853
14.5855,1133
14.5912,1154
14.5969,1351
14.6026,1065
14.6083,1063
14.6141,860
14.6198,966
14.6255,979
14.6312,1238
14.6369,1210
14.6427,1243
14.6484,1322
14.6541,1202
14.6598,959
14.6656,953
14.6713,1003
14.677,1030
14.6827,1194
14.6884,1075
14.6942,1150
14.6999,1044
14.7056,1259
14.7113,1182
14.7171,1150
14.7228,1187
14.7285,1261
14.7342,1258
14.7399,1394
14.7457,972
14.7514,898
14.7571,903
14.7628,1132
14.7686,1139
14.7743,960
14.78,1036
14.7857,1117
14.7914,1346
14.7972,1149
14.8029,1514
14.8086,1209
14.8143,1645
14.8201,1177
14.8258,1443
14.8315,1421
14.8372,1498
14.8429,1446
14.8487,1245
14.8544,1278
14.8601,1128
14.8658,1171
14.8715,1212
14.8773,1151
14.883,1479
14.8887,1290
14.8944,1550
14.9002,1259
14.9059,1395
14.9116,1533
14.9173,1224
14.923,902
14.9288,1610
14.9345,1472
14.9402,1485
14.9459,1623
14.9517,1263
14.9574,1605
14.9631,1351
14.9688,1575
14.9745,1995
14.9803,1519
14.986,1683
14.9917,1847
14.9974,1606
15.0032,1429
15.0089,1509
15.0146,1213
15.0203,1686
15.026,1332
15.0318,1711
15.0375,1618
15.0432,1456
15.0489,1667
15.0547,1374
15.0604,1530
15.0661,1461
15.0718,1817
15.0775,1830
15.0833,1376
15.089,1753
15.0947,1745
15.1004,1711
15.1062,1933
15.1119,1487
15.1176,1592
15.1233,2017
15.129,1893
15.1348,1959
15.1405,1612
15.1462,1923
15.1519,2029
15.1576,1785
15.1634,1954
15.1691,2017
15.1748,1806
15.1805,1816
15.1863,1775
15.192,1685
15.1977,1599
15.2034,1754
15.2091,1822
15.2149,1823
15.2206,1947
15.2263,1704
15.232,2135
15.2378,1659
15.2435,1530
15.2492,2305
15.2549,2057
15.2606,1729
15.2664,1845
15.2721,2009
15.2778,1435
15.2835,2492
15.2893,1840
15.295,2194
15.3007,2228
15.3064,2144
15.3121,1614
15.3179,2032
15.3236,2336
15.3293,1910
15.335,2128
15.3408,2066
15.3465,2128
15.3522,2291
15.3579,1921
15.3636,2138
15.3694,2238
15.3751,2020
15.3808,1933
15.3865,2513
15.3922,2105
15.398,1954
15.4037,2548
15.4094,2618
15.4151,1879
15.4209,2715
15.4266,2906
15.4323,2243
15.438,2673
15.4437,2378
15.4495,2177
15.4552,2030
15.4609,2408
15.4666,2528
15.4724,2431
15.4781,2710
15.4838,2565
15.4895,2079
15.4952,2215
15.501,2623
15.5067,2606
15.5124,2400
15.5181,2999
15.5239,2442
15.5296,2790
15.5353,2773
15.541,2596
15.5467,2920
15.5525,2327
15.5582,2670
15.5639,2400
15.5696,2408
15.5754,2446
15.5811,2654
15.5868,2709
15.5925,2695
15.5982,2648
15.604,2577
15.6097,2635
15.6154,2227
15.6211,2707
15.6268,2573
15.6326,2965
15.6383,2818
15.644,2357
15.6497,2734
15.6555,2853
15.6612,3526
15.6669,3436
15.6726,2853
15.6783,3207
15.6841,3096
15.6898,3488
15.6955,3023
15.7012,3143
15.707,2979
15.7127,2856
15.7184,3046
15.7241,3354
15.7298,2924
15.7356,3343
15.7413,2803
15.747,2834
15.7527,2869
15.7585,3200
15.7642,3163
15.7699,3402
15.7756,3120
15.7813,2911
15.7871,3376
15.7928,2739
15.7985,3132
15.8042,2747
15.81,3257
15.8157,3336
15.8214,3011
15.8271,3227
15.8328,3208
15.8386,3281
15.8443,3629
15.85,3203
15.8557,3049
15.8615,2838
15.8672,3102
15.8729,2741
15.8786,3326
15.8843,3610
15.8901,3696
15.8958,3649
15.9015,3570
15.9072,3342
15.9129,3794
15.9187,3540
15.9244,3196
15.9301,3171
15.9358,3513
15.9416,3647
15.9473,2861
15.953,3320
15.9587,3729
15.9644,3615
15.9702,3231
15.9759,3567
15.9816,3582
15.9873,3289
15.9931,3485
15.9988,3790
16.0045,3592
16.0102,4040
16.0159,3803
16.0217,3694
16.0274,3785
16.0331,3742
16.0388,4071
16.0446,3651
16.0503,3663
16.056,4013
16.0617,3668
16.0674,3934
16.0731,3729
16.0789,3905
16.0846,3787
16.0903,4268
16.0961,4189
16.1018,4825
16.1075,4063
16.1132,3978
16.1189,4086
16.1246,3905
16.1304,3910
16.1361,4171
16.1418,4088
16.1475,4260
16.1533,4831
16.159,4179
16.1647,4226
16.1704,4636
16.1762,4260
16.1819,4516
16.1876,4290
16.1933,4434
16.199,4155
16.2048,4590
16.2105,4438
16.2162,4037
16.2219,4753
16.2277,4884
16.2334,4323
16.2391,4484
16.2448,4089
16.2505,4604
16.2563,4423
16.262,4338
16.2677,4537
16.2734,4328
16.2792,4990
16.2849,4878
16.2906,4606
16.2963,5028
16.302,5151
16.3077,4826
16.3135,5103
16.3192,4843
16.3249,4886
16.3306,4750
16.3364,4944
16.3421,4794
16.3478,4728
16.3535,5244
16.3592,5204
16.365,4647
16.3707,4821
16.3764,5257
16.3821,5232
16.3879,5054
16.3936,4648
16.3993,4996
16.405,4869
16.4108,5102
16.4165,4875
16.4222,5182
16.4279,5285
16.4336,5286
16.4394,5812
16.4451,5335
16.4508,5708
16.4565,5403
16.4623,5386
16.468,5007
16.4737,5116
16.4794,5327
16.4851,5887
16.4909,5410
16.4966,5588
16.5023,5391
16.508,5167
16.5138,6052
16.5195,5765
16.5252,5406
16.5309,5942
16.5366,6084
16.5423,5928
16.5481,5751
16.5538,6162
16.5595,5670
16.5652,5451
16.571,5751
16.5767,5781
16.5824,5774
16.5881,5666
16.5939,6036
16.5996,6161
16.6053,5746
16.611,6175
16.6168,5910
16.6225,5980
16.6282,6334
16.6339,5383
16.6396,6091
16.6454,5959
16.6511,6149
16.6568,5671
16.6625,5975
16.6682,6225
16.674,5946
16.6797,6349
16.6854,6073
16.6911,6334
16.6969,6202
16.7026,6727
16.7083,6058
16.714,6302
16.7197,6237
16.7255,6466
16.7312,6311
16.7369,6565
16.7426,7153
16.7483,5912
16.7541,6257
16.7598,6362
16.7655,6752
16.7712,6465
16.7769,6717
16.7827,6194
16.7884,6925
16.7941,7116
16.7998,6673
16.8056,6766
16.8113,6788
16.817,6414
16.8227,6875
16.8285,6584
16.8342,6835
16.8399,6821
16.8456,7274
16.8514,7366
16.8571,7613
16.8628,7134
16.8685,7347
16.8742,6644
16.88,7044
16.8857,7436
16.8914,7048
16.8971,7205
16.9028,7330
16.9086,7086
16.9143,7208
16.92,7490
16.9257,7092
16.9315,8258
16.9372,7364
16.9429,7387
16.9486,7563
16.9543,7829
16.9601,7575
16.9658,7885
16.9715,7139
16.9772,7215
16.9829,7604
16.9887,7531
16.9944,7951
17.0001,7272
17.0058,7744
17.0116,8686
17.0173,7131
17.023,8304
17.0287,7435
17.0345,7907
17.0402,8017
17.0459,8535
17.0516,7824
17.0573,8485
17.0631,8017
17.0688,7871
17.0745,7499
17.0802,8200
17.086,8361
17.0917,8346
17.0974,7876
17.1031,8720
17.1088,8129
17.1146,8472
17.1203,8791
17.126,8571
17.1317,9001
17.1374,8237
17.1432,7993
17.1489,8550
17.1546,9157
17.1603,8780
17.166,8747
17.1718,8239
17.1775,9000
17.1832,8997
17.1889,9430
17.1947,8975
17.2004,8604
17.2061,8930
17.2118,8858
17.2175,8794
17.2233,9467
17.229,9100
17.2347,10015
17.2404,8598
17.2462,8777
17.2519,9383
17.2576,9101
17.2633,9153
17.2691,9435
17.2748,9355
17.2805,9618
17.2862,9236
17.2919,9700
17.2977,8915
17.3034,10127
17.3091,9614
17.3148,9315
17.3206,9802
17.3263,9987
17.332,9967
17.3377,10247
17.3434,9471
17.3492,9885
17.3549,9345
17.3606,10466
17.3663,9749
17.3721,9972
17.3778,10552
17.3835,10169
17.3892,10982
17.3949,10682
17.4006,10327
17.4064,10957
17.4121,10843
17.4178,10338
17.4235,10530
17.4293,10350
17.435,10482
17.4407,9682
17.4464,10671
17.4522,11017
17.4579,10437
17.4636,11004
17.4693,10706
17.475,11107
17.4808,10376
17.4865,11069
17.4922,11191
17.4979,11044
17.5037,11060
17.5094,11353
17.5151,10822
17.5208,11571
17.5265,10548
17.5323,11663
17.538,11289
17.5437,12035
17.5494,11312
17.5552,10993
17.5609,11421
17.5666,11610
17.5723,11808
17.578,11592
17.5838,11093
17.5895,11442
17.5952,10681
17.6009,12323
17.6067,11962
17.6124,11385
17.6181,10769
17.6238,11634
17.6295,11266
17.6352,12633
17.641,11576
17.6467,12257
17.6524,11874
17.6581,12238
17.6639,12194
17.6696,12711
17.6753,12746
17.681,11838
17.6868,13050
17.6925,12267
17.6982,12351
17.7039,11158
17.7096,11123
17.7154,12116
17.7211,12534
17.7268,12543
17.7325,13213
17.7383,12621
17.744,11977
17.7497,12362
17.7554,12608
17.7611,12647
17.7669,13374
17.7726,12666
17.7783,12491
17.784,12932
17.7898,12537
17.7955,13801
17.8012,13755
17.8069,13114
17.8126,13935
17.8184,12957
17.8241,13705
17.8298,12469
17.8355,13393
17.8413,13208
17.847,13558
17.8527,14012
17.8584,13771
17.8641,13302
17.8699,14480
17.8756,14408
17.8813,13322
17.887,13994
17.8927,13321
17.8985,14347
17.9042,13838
17.9099,13514
17.9156,13683
17.9214,14522
17.9271,13619
17.9328,14134
17.9385,13788
17.9442,15373
17.95,13872
17.9557,14124
17.9614,14602
17.9671,13704
17.9729,14598
17.9786,14378
17.9843,13876
17.99,14191
17.9957,14748
18.0015,14456
18.0072,14666
18.0129,14178
18.0186,14864
18.0244,14899
18.0301,15447
18.0358,15166
18.0415,14698
18.0472,14359
18.0529,15092
18.0587,15138
18.0644,15003
18.0701,15433
18.0759,15868
18.0816,15058
18.0873,14581
18.093,15020
18.0987,15426
18.1045,15044
18.1102,15327
18.1159,15709
18.1216,15218
18.1274,15195
18.1331,15476
18.1388,15654
18.1445,16055
18.1502,14711
18.156,15590
18.1617,15328
18.1674,15335
18.1731,15444
18.1788,14957
18.1846,15500
18.1903,16645
18.196,16393
18.2017,16767
18.2075,15604
18.2132,16252
18.2189,15396
18.2246,15938
18.2303,16519
18.2361,16263
18.2418,16145
18.2475,16811
18.2532,17513
18.259,15812
18.2647,16976
18.2704,17632
18.2761,15386
18.2818,16965
18.2876,16361
18.2933,16625
18.299,16137
18.3047,17253
18.3104,17234
18.3162,17085
18.3219,16969
18.3276,16840
18.3333,17433
18.3391,17511
18.3448,17143
18.3505,16645
18.3562,17703
18.362,17612
18.3677,18228
18.3734,18797
18.3791,17967
18.3848,17973
18.3906,17330
18.3963,17629
18.402,17656
18.4077,17957
18.4134,17837
18.4192,18035
18.4249,18661
18.4306,16703
18.4363,18543
18.4421,18257
18.4478,17960
18.4535,18165
18.4592,18200
18.4649,18411
18.4707,18422
18.4764,18291
18.4821,17818
18.4878,17749
18.4936,18381
18.4993,18967
18.505,18875
18.5107,18229
18.5164,17982
18.5222,19107
18.5279,19489
18.5336,18202
18.5393,18545
18.5451,18736
18.5508,19338
18.5565,19458
18.5622,19271
18.5679,18625
18.5737,18254
18.5794,19503
18.5851,19496
18.5908,18972
18.5966,18770
18.6023,19148
18.608,19514
18.6137,20327
18.6194,20004
18.6252,20363
18.6309,19980
18.6366,19188
18.6423,18867
18.6481,19147
18.6538,18984
18.6595,20008
18.6652,20983
18.6709,19980
18.6767,20538
18.6824,20319
18.6881,19701
18.6938,21225
18.6995,19784
18.7053,18936
18.711,19889
18.7167,20471
18.7224,19465
18.7281,20172
18.7339,20298
18.7396,19620
18.7453,19662
18.751,20524
18.7568,19423
18.7625,19833
18.7682,20324
18.7739,20898
18.7797,21184
18.7854,21099
18.7911,21043
18.7968,21093
18.8025,20674
18.8083,20786
18.814,19790
18.8197,20395
18.8254,21172
18.8312,20558
18.8369,20635
18.8426,20741
18.8483,21036
18.854,20088
18.8598,20860
18.8655,21428
18.8712,23279
18.8769,20537
18.8827,22571
18.8884,20221
18.8941,20970
18.8998,21397
18.9055,22719
18.9113,20387
18.917,21262
18.9227,20898
18.9284,21679
18.9341,20410
18.9399,20967
18.9456,21183
18.9513,21985
18.957,21616
18.9628,22665
18.9685,22156
18.9742,22632
18.9799,21677
18.9856,20450
18.9914,21381
18.9971,21848
19.0028,22731
19.0085,22560
19.0143,21564
19.02,22754
19.0257,22173
19.0314,22546
19.0371,21987
19.0429,23549
19.0486,21438
19.0543,22600
19.06,22282
19.0658,22430
19.0715,22911
19.0772,22959
19.0829,22668
19.0886,22321
19.0944,22140
19.1001,22951
19.1058,21616
19.1115,21829
19.1173,23677
19.123,22737
19.1287,22430
19.1344,23124
19.1401,21957
19.1458,22860
19.1516,21488
19.1573,22360
19.163,22233
19.1687,22637
19.1745,23135
19.1802,23355
19.1859,22775
19.1916,23269
19.1974,24575
19.2031,24470
19.2088,23539
19.2145,23302
19.2202,22293
19.226,23115
19.2317,22910
19.2374,22304
19.2431,23502
19.2489,22866
19.2546,22698
19.2603,23601
19.266,23414
19.2717,21707
19.2775,22071
19.2832,22565
19.2889,22891
19.2946,22512
19.3004,21800
19.3061,22907
19.3118,22620
19.3175,22288
19.3232,22307
19.329,22883
19.3347,23589
19.3404,21415
19.3461,22275
19.3519,23448
19.3576,21998
19.3633,24455
19.369,22797
19.3747,22373
19.3805,23302
19.3862,22555
19.3919,22713
19.3976,23386
19.4034,23691
19.4091,22065
19.4148,22686
19.4205,22791
19.4262,22688
19.432,23225
19.4377,22330
19.4434,22622
19.4491,23351
19.4548,22861
19.4606,23048
19.4663,22516
19.472,24430
19.4777,23504
19.4835,22964
19.4892,22299
19.4949,22933
19.5006,21795
19.5063,23247
19.5121,22825
19.5178,22868
19.5235,23552
19.5292,22798
19.535,22777
19.5407,22091
19.5464,23915
19.5521,22463
19.5578,24045
19.5635,23502
19.5693,23530
19.575,23452
19.5807,23532
19.5864,22340
19.5922,22826
19.5979,21836
19.6036,22471
19.6093,23212
19.6151,22451
19.6208,22891
19.6265,23012
19.6322,22752
19.638,23049
19.6437,22761
19.6494,24294
19.6551,22828
19.6608,22905
19.6666,23031
19.6723,22922
19.678,23563
19.6837,23639
19.6894,24004
19.6952,22480
19.7009,22261
19.7066,22604
19.7123,23549
19.7181,22827
19.7238,23581
19.7295,22971
19.7352,21275
19.7409,23698
19.7467,22695
19.7524,22717
19.7581,22183
19.7638,24590
19.7696,23930
19.7753,22678
19.781,22432
19.7867,23099
19.7924,24582
19.7982,24410
19.8039,23653
19.8096,23851
19.8153,23774
19.8211,24116
19.8268,23235
19.8325,23530
19.8382,22534
19.8439,23312
19.8497,24222
19.8554,24311
19.8611,24495
19.8668,23771
19.8726,22435
19.8783,23006
19.884,23092
19.8897,23221
19.8954,22698
19.9012,23376
19.9069,23122
19.9126,23549
19.9183,24818
19.924,23235
19.9298,22758
19.9355,23183
19.9412,23311
19.9469,22801
19.9527,23208
19.9584,23451
19.9641,23145
19.9698,24109
19.9755,23504
19.9813,22761
19.987,22229
19.9927,23615
19.9984,23435
20.0041,22722
20.0099,22937
20.0156,22426
20.0213,23253
20.027,22956
20.0328,23288
20.0385,23044
20.0442,22227
20.0499,22996
20.0557,23292
20.0614,23367
20.0671,23475
20.0728,23314
20.0785,22617
20.0843,24472
20.09,24291
20.0957,23923
20.1014,23261
20.1072,24469
20.1129,23611
20.1186,22920
20.1243,24322
20.13,22937
20.1358,24086
20.1415,23790
20.1472,22105
20.1529,23049
20.1587,22965
20.1644,24106
20.1701,22678
20.1758,23747
20.1815,23768
20.1873,23263
20.193,23651
20.1987,23303
20.2044,21934
20.2101,23300
20.2159,22579
20.2216,23308
20.2273,22889
20.233,22726
20.2388,23805
20.2445,23725
20.2502,23445
20.2559,24010
20.2616,23711
20.2674,23900
20.2731,25116
20.2788,23775
20.2845,23806
20.2903,24331
20.296,23189
20.3017,22915
20.3074,22946
20.3131,22511
20.3189,22605
20.3246,23100
20.3303,25190
20.336,22833
20.3418,23424
20.3475,23031
20.3532,23989
20.3589,23354
20.3646,23586
20.3704,23058
20.3761,23511
20.3818,22989
20.3875,24160
20.3933,23676
20.399,23478
20.4047,23621
20.4104,22691
20.4161,22319
20.4219,22777
20.4276,22874
20.4333,23177
20.439,23989
20.4447,23688
20.4505,23742
20.4562,23824
20.4619,23089
20.4676,23615
20.4734,23161
20.4791,22828
20.4848,23153
20.4905,23295
20.4962,23148
20.502,22895
20.5077,23362
20.5134,23658
20.5191,22406
20.5249,23121
20.5306,22924
20.5363,23698
20.542,23283
20.5477,22651
20.5535,23638
20.5592,22333
20.5649,23057
20.5706,22757
20.5764,23638
20.5821,23043
20.5878,23056
20.5935,23883
20.5992,23106
20.605,23464
20.6107,23671
20.6164,23215
20.6221,23889
20.6279,23084
20.6336,22533
20.6393,23422
20.645,23261
20.6507,24132
20.6565,23108
20.6622,24323
20.6679,24233
20.6736,23887
20.6793,23857
20.6851,22709
20.6908,22592
20.6965,23276
20.7022,23036
20.708,23652
20.7137,24336
20.7194,23937
20.7251,23220
20.7308,23946
20.7366,23023
20.7423,23299
20.748,22622
20.7537,24934
20.7595,24045
20.7652,22014
20.7709,23942
20.7766,22711
20.7823,23248
20.7881,24664
20.7938,23281
20.7995,23308
20.8052,24138
20.811,23459
20.8167,23614
20.8224,23153
20.8281,22316
20.8338,23398
20.8396,24227
20.8453,22926
20.851,23441
20.8567,22771
20.8625,24106
20.8682,22854
20.8739,24506
20.8796,23259
20.8853,23173
20.8911,24612
20.8968,23271
20.9025,23358
20.9082,22634
20.914,23064
20.9197,24261
20.9254,22142
20.9311,23207
20.9368,23275
20.9426,23460
20.9483,23622
20.954,23436
20.9597,23752
20.9654,23349
20.9712,24276
20.9769,23116
20.9826,23319
20.9883,22652
20.9941,24091
20.9998,22949
21.0055,23004
21.0112,23150
21.0169,22817
21.0227,24063
21.0284,24469
21.0341,23223
21.0398,23502
21.0456,22995
21.0513,23562
21.057,23897
21.0627,25031
21.0684,23356
21.0741,23101
21.0799,23251
21.0856,24117
21.0913,23230
21.097,23874
21.1028,23637
21.1085,23321
21.1142,23606
21.1199,24343
21.1257,24487
21.1314,23570
21.1371,22486
21.1428,23291
21.1486,24808
21.1543,23755
21.16,23168
21.1657,23319
21.1714,22330
21.1772,22927
21.1829,24511
21.1886,23639
21.1943,23342
21.2,23097
21.2058,23345
21.2115,23220
21.2172,23427
21.2229,22988
21.2287,23220
21.2344,24907
21.2401,24935
21.2458,23416
21.2515,22536
21.2573,23593
21.263,25092
21.2687,24136
21.2744,23763
21.2802,23624
21.2859,23696
21.2916,22737
21.2973,23067
21.303,23216
21.3088,22938
21.3145,22710
21.3202,23360
21.3259,24191
21.3317,22734
21.3374,22949
21.3431,23833
21.3488,23593
21.3545,23898
21.3603,22647
21.366,24075
21.3717,23772
21.3774,23515
21.3832,24006
21.3889,24298
21.3946,23201
21.4003,24234
21.406,23462
21.4118,24561
21.4175,25510
21.4232,23147
21.4289,22427
21.4347,24222
21.4404,22807
21.4461,24270
21.4518,23347
21.4575,22694
21.4633,22456
21.469,23801
21.4747,23574
21.4804,22464
21.4861,23140
21.4919,24037
21.4976,22311
21.5033,23980
21.509,23245
21.5147,22466
21.5205,23568
21.5262,23982
21.5319,22933
21.5376,24181
21.5434,23539
21.5491,23586
21.5548,23631
21.5605,23098
21.5663,24676
21.572,24192
21.5777,23558
21.5834,24178
21.5891,23077
21.5949,22378
21.6006,23954
21.6063,23634
21.612,23778
21.6178,23654
21.6235,23098
21.6292,23310
21.6349,23203
21.6406,23734
21.6464,24478
21.6521,23962
21.6578,22013
21.6635,23096
21.6693,23845
21.675,23851
21.6807,22728
21.6864,23738
21.6921,24261
21.6979,23467
21.7036,23374
21.7093,23307
21.715,22981
21.7207,23656
21.7265,23699
21.7322,24235
21.7379,22622
21.7436,22567
21.7494,23384
21.7551,23527
21.7608,22993
21.7665,23446
21.7722,23375
21.778,24064
21.7837,23337
21.7894,23652
21.7951,24882
21.8009,22933
21.8066,23640
21.8123,23322
21.818,21979
21.8237,23780
21.8295,23048
21.8352,23617
21.8409,23314
21.8466,24755
21.8524,23191
21.8581,23127
21.8638,23486
21.8695,23604
21.8752,24427
21.881,23802
21.8867,23359
21.8924,24248
21.8981,23898
21.9039,23196
21.9096,22178
21.9153,23301
21.921,21760
21.9267,22490
21.9324,23361
21.9382,22640
21.9439,23266
21.9496,23205
21.9553,23099
21.9611,22375
21.9668,23717
21.9725,23883
21.9782,24411
21.984,23950
21.9897,23433
21.9954,23323
22.0011,24238
22.0068,22919
22.0126,24796
22.0183,24540
22.024,24665
22.0297,22755
22.0355,23282
22.0412,22888
22.0469,24400
22.0526,23473
22.0583,23317
22.0641,23188
22.0698,23019
22.0755,23750
22.0812,23168
22.087,23297
22.0927,23303
22.0984,23853
22.1041,23995
22.1098,23728
22.1156,23793
22.1213,23354
22.127,24974
22.1327,23576
22.1385,23014
22.1442,24415
22.1499,23557
22.1556,23685
22.1613,23989
22.1671,23629
22.1728,23104
22.1785,24220
22.1842,24378
22.19,24045
22.1957,23983
22.2014,23043
22.2071,22602
22.2128,24000
22.2186,23370
22.2243,24390
22.23,23557
22.2357,24353
22.2414,23954
22.2472,23438
22.2529,23354
22.2586,24697
22.2643,23295
22.2701,23706
22.2758,24738
22.2815,23827
22.2872,25093
22.2929,25220
22.2987,23896
22.3044,23558
22.3101,22575
22.3158,23744
22.3216,23015
22.3273,23384
22.333,24116
22.3387,24315
22.3444,24198
22.3501,23843
22.3559,25022
22.3616,23175
22.3673,23369
22.3731,24289
22.3788,24881
22.3845,22956
22.3902,24541
22.3959,22999
22.4017,23055
22.4074,22848
22.4131,23382
22.4188,24338
22.4246,24246
22.4303,23074
22.436,24367
22.4417,24230
22.4474,23918
22.4532,24612
22.4589,23515
22.4646,23418
22.4703,23808
22.476,23988
22.4818,24368
22.4875,23268
22.4932,23262
