C:\MSDCHEM\1\DATA\MANDKHAI\20180626 MTH_C12COA\SLR_WT_NltAB_fresh_1_redo.d 27 Jun 18   3:28 pm
Start of data points
5.09263,251
5.09835,419
5.10408,175
5.1098,201
5.11552,183
5.12125,269
5.12697,358
5.13268,184
5.1384,249
5.14413,209
5.14985,195
5.15557,245
5.1613,0
5.16702,161
5.17273,287
5.17847,0
5.18418,217
5.1899,386
5.19563,222
5.20135,180
5.20707,0
5.2128,207
5.21852,186
5.22423,194
5.22997,0
5.23568,0
5.2414,201
5.24713,171
5.25285,180
5.25857,166
5.26428,178
5.27002,0
5.27573,225
5.28145,0
5.28718,239
5.2929,163
5.29862,183
5.30435,0
5.31007,161
5.31578,0
5.32152,0
5.32723,0
5.33295,0
5.33868,179
5.3444,155
5.35012,182
5.35585,174
5.36157,182
5.36728,0
5.37302,0
5.37873,0
5.38445,164
5.39017,0
5.3959,186
5.40162,0
5.40733,154
5.41307,249
5.41878,0
5.4245,0
5.43023,170
5.43595,158
5.44167,0
5.4474,0
5.45312,160
5.45883,183
5.46457,174
5.47028,0
5.476,0
5.48173,160
5.48745,0
5.49317,169
5.4989,162
5.50462,0
5.51033,0
5.51605,0
5.52178,0
5.5275,150
5.53322,163
5.53895,215
5.54467,0
5.55038,179
5.55612,162
5.56183,171
5.56755,192
5.57328,174
5.579,0
5.58472,0
5.59045,0
5.59617,227
5.60188,205
5.60762,151
5.61333,0
5.61905,204
5.62478,161
5.6305,0
5.63622,0
5.64193,0
5.64767,196
5.65338,191
5.6591,210
5.66483,200
5.67055,155
5.67627,0
5.682,166
5.68772,195
5.69343,166
5.69917,153
5.70488,0
5.7106,0
5.71633,0
5.72205,0
5.72777,158
5.7335,0
5.73922,0
5.74493,0
5.75067,221
5.75638,0
5.7621,0
5.76782,178
5.77355,0
5.77927,0
5.78498,0
5.79072,0
5.79643,0
5.80215,253
5.80788,0
5.8136,0
5.81932,0
5.82505,0
5.83077,0
5.83648,0
5.84222,184
5.84793,0
5.85365,0
5.85938,0
5.8651,0
5.87082,0
5.87655,0
5.88227,0
5.88798,0
5.8937,164
5.89943,0
5.90515,0
5.91087,0
5.9166,151
5.92232,0
5.92803,170
5.93377,174
5.93948,0
5.9452,0
5.95093,0
5.95665,0
5.96237,0
5.9681,0
5.97382,0
5.97953,0
5.98527,177
5.99098,0
5.9967,167
6.00243,0
6.00815,0
6.01387,0
6.01958,0
6.02532,0
6.03103,0
6.03675,0
6.04248,0
6.0482,173
6.05392,0
6.05965,0
6.06537,0
6.07108,162
6.07682,0
6.08253,223
6.08825,0
6.09398,0
6.0997,0
6.10542,0
6.11115,0
6.11687,0
6.12258,0
6.12832,0
6.13403,0
6.13975,181
6.14547,0
6.1512,0
6.15692,0
6.16263,0
6.16837,0
6.17408,0
6.1798,184
6.18553,0
6.19125,0
6.19697,0
6.2027,0
6.20842,0
6.21413,0
6.21987,0
6.22558,0
6.2313,0
6.23703,0
6.24275,0
6.24847,0
6.2542,0
6.25992,0
6.26563,0
6.27135,0
6.27708,0
6.2828,0
6.28852,0
6.29425,0
6.29997,176
6.30568,182
6.31142,166
6.31713,0
6.32285,195
6.32858,0
6.3343,0
6.34002,0
6.34575,163
6.35147,0
6.35718,160
6.36292,0
6.36863,183
6.37435,0
6.38008,0
6.3858,0
6.39152,0
6.39723,0
6.40297,0
6.40868,0
6.4144,0
6.42013,0
6.42585,0
6.43157,0
6.4373,0
6.44302,0
6.44873,0
6.45447,0
6.46018,0
6.4659,0
6.47163,0
6.47735,0
6.48307,0
6.4888,0
6.49452,0
6.50023,0
6.50597,150
6.51168,0
6.5174,0
6.52312,0
6.52885,0
6.53457,0
6.54028,0
6.54602,0
6.55173,0
6.55745,0
6.56318,0
6.5689,0
6.57462,174
6.58035,0
6.58607,178
6.59178,0
6.59752,0
6.60323,0
6.60895,0
6.61468,0
6.6204,0
6.62612,0
6.63185,152
6.63757,0
6.64328,0
6.649,0
6.65473,0
6.66045,0
6.66617,0
6.6719,0
6.67762,0
6.68333,0
6.68907,0
6.69478,0
6.7005,0
6.70623,0
6.71195,0
6.71767,0
6.7234,324
6.72912,1010
6.73483,1403
6.74057,1904
6.74628,1641
6.752,1476
6.75773,1027
6.76345,927
6.76917,619
6.77488,521
6.78062,276
6.78633,250
6.79205,227
6.79778,0
6.8035,0
6.80922,153
6.81495,181
6.82067,0
6.82638,180
6.83212,0
6.83783,0
6.84355,0
6.84928,0
6.855,0
6.86072,0
6.86645,156
6.87217,0
6.87788,0
6.88362,0
6.88933,0
6.89505,0
6.90077,0
6.9065,0
6.91222,0
6.91793,0
6.92367,0
6.92938,0
6.9351,0
6.94083,0
6.94655,0
6.95227,0
6.958,0
6.96372,0
6.96943,197
6.97517,0
6.98088,0
6.9866,0
6.99233,0
6.99805,0
7.00377,0
7.0095,0
7.01522,0
7.02093,0
7.02665,0
7.03238,0
7.0381,0
7.04382,0
7.04955,0
7.05527,0
7.06098,0
7.06672,0
7.07243,0
7.07815,0
7.08388,0
7.0896,213
7.09532,0
7.10105,0
7.10677,0
7.11248,0
7.11822,0
7.12393,0
7.12965,0
7.13538,0
7.1411,0
7.14682,0
7.15255,0
7.15827,0
7.16398,0
7.1697,0
7.17543,0
7.18115,0
7.18687,0
7.1926,0
7.19832,0
7.20403,0
7.20977,169
7.21548,0
7.2212,0
7.22693,0
7.23265,0
7.23837,0
7.2441,0
7.24982,0
7.25553,0
7.26127,0
7.26698,0
7.2727,150
7.27843,0
7.28415,0
7.28987,0
7.29558,0
7.30132,0
7.30703,163
7.31275,0
7.31848,0
7.3242,0
7.32992,0
7.33565,0
7.34137,0
7.34708,0
7.35282,0
7.35853,0
7.36425,0
7.36998,0
7.3757,0
7.38142,0
7.38715,0
7.39287,0
7.39858,0
7.40432,0
7.41003,0
7.41575,0
7.42147,0
7.4272,0
7.43292,0
7.43863,0
7.44437,0
7.45008,0
7.4558,0
7.46153,0
7.46725,0
7.47297,0
7.4787,0
7.48442,0
7.49013,0
7.49587,0
7.50158,0
7.5073,0
7.51303,0
7.51875,0
7.52447,0
7.5302,0
7.53592,0
7.54163,0
7.54735,0
7.55308,0
7.5588,0
7.56452,0
7.57025,0
7.57597,0
7.58168,0
7.58742,0
7.59313,0
7.59885,0
7.60458,0
7.6103,0
7.61602,0
7.62175,0
7.62747,0
7.63318,0
7.63892,0
7.64463,0
7.65035,0
7.65608,0
7.6618,0
7.66752,0
7.67323,0
7.67897,0
7.68468,0
7.6904,0
7.69613,0
7.70185,0
7.70757,0
7.7133,0
7.71902,0
7.72473,0
7.73047,0
7.73618,0
7.7419,0
7.74763,0
7.75335,0
7.75907,0
7.7648,0
7.77052,0
7.77623,0
7.78197,0
7.78768,0
7.7934,0
7.79912,0
7.80485,0
7.81057,0
7.81628,0
7.82202,0
7.82773,0
7.83345,0
7.83918,0
7.8449,0
7.85062,0
7.85635,0
7.86207,0
7.86778,0
7.87352,0
7.87923,0
7.88495,0
7.89068,0
7.8964,0
7.90212,0
7.90785,0
7.91357,0
7.91928,0
7.925,0
7.93073,0
7.93645,0
7.94217,0
7.9479,0
7.95362,0
7.95933,0
7.96507,0
7.97078,0
7.9765,0
7.98223,0
7.98795,0
7.99367,0
7.9994,0
8.00512,0
8.01083,0
8.01657,0
8.02228,0
8.028,0
8.03373,0
8.03945,0
8.04517,0
8.05088,0
8.05662,0
8.06233,0
8.06805,0
8.07378,0
8.0795,0
8.08522,0
8.09095,0
8.09667,0
8.10238,0
8.10812,0
8.11383,0
8.11955,0
8.12528,0
8.131,0
8.13672,0
8.14245,0
8.14817,0
8.15388,0
8.15962,0
8.16533,0
8.17105,0
8.17677,0
8.1825,0
8.18822,0
8.19393,0
8.19967,0
8.20538,0
8.2111,0
8.21683,0
8.22255,0
8.22827,0
8.234,0
8.23972,0
8.24543,0
8.25117,0
8.25688,0
8.2626,0
8.26833,0
8.27405,0
8.27977,0
8.2855,0
8.29122,0
8.29693,0
8.30265,0
8.30838,0
8.3141,0
8.31982,0
8.32555,0
8.33127,0
8.33698,0
8.34272,0
8.34843,0
8.35415,0
8.35988,0
8.3656,0
8.37132,0
8.37705,0
8.38277,0
8.38848,0
8.39422,0
8.39993,0
8.40565,0
8.41138,0
8.4171,0
8.42282,0
8.42853,0
8.43427,0
8.43998,0
8.4457,0
8.45143,0
8.45715,179
8.46287,409
8.4686,707
8.47432,1508
8.48003,1495
8.48577,1357
8.49148,765
8.4972,606
8.50293,199
8.50865,0
8.51437,0
8.5201,160
8.52582,0
8.53153,0
8.53727,0
8.54298,0
8.5487,0
8.55442,0
8.56015,0
8.56587,0
8.57158,0
8.57732,0
8.58303,0
8.58875,0
8.59448,0
8.6002,0
8.60592,0
8.61165,0
8.61737,0
8.62308,0
8.62882,0
8.63453,0
8.64025,0
8.64598,0
8.6517,0
8.65742,0
8.66315,0
8.66887,0
8.67458,0
8.6803,0
8.68603,0
8.69175,0
8.69747,0
8.7032,0
8.70892,0
8.71463,0
8.72037,0
8.72608,0
8.7318,0
8.73753,0
8.74325,0
8.74897,0
8.7547,0
8.76042,0
8.76613,0
8.77187,0
8.77758,0
8.7833,0
8.78903,0
8.79475,0
8.80047,0
8.80618,0
8.81192,0
8.81763,0
8.82335,0
8.82908,0
8.8348,0
8.84052,0
8.84625,0
8.85197,0
8.85768,0
8.86342,0
8.86913,0
8.87485,0
8.88058,0
8.8863,0
8.89202,0
8.89775,0
8.90347,0
8.90918,0
8.91492,0
8.92063,0
8.92635,0
8.93207,0
8.9378,0
8.94352,0
8.94923,0
8.95497,0
8.96068,0
8.9664,0
8.97213,0
8.97785,0
8.98357,0
8.9893,0
8.99502,0
9.00073,0
9.00647,0
9.01218,0
9.0179,0
9.02363,0
9.02935,0
9.03507,0
9.0408,0
9.04652,0
9.05223,0
9.05795,0
9.06368,0
9.0694,0
9.07512,0
9.08085,0
9.08657,0
9.09228,0
9.09802,0
9.10373,0
9.10945,0
9.11518,0
9.1209,0
9.12662,0
9.13235,0
9.13807,0
9.14378,0
9.14952,0
9.15523,0
9.16095,0
9.16668,0
9.1724,0
9.17812,0
9.18383,0
9.18957,0
9.19528,0
9.201,0
9.20673,0
9.21245,0
9.21817,0
9.2239,0
9.22962,0
9.23533,0
9.24107,0
9.24678,0
9.2525,0
9.25823,0
9.26395,0
9.26967,0
9.2754,0
9.28112,0
9.28683,0
9.29257,0
9.29828,0
9.304,0
9.30972,0
9.31545,0
9.32117,0
9.32688,0
9.33262,0
9.33833,0
9.34405,0
9.34978,0
9.3555,0
9.36122,0
9.36695,0
9.37267,0
9.37838,0
9.38412,0
9.38983,0
9.39555,0
9.40128,0
9.407,0
9.41272,0
9.41845,0
9.42417,0
9.42988,0
9.4356,0
9.44133,0
9.44705,0
9.45277,0
9.4585,0
9.46422,0
9.46993,0
9.47567,0
9.48138,0
9.4871,0
9.49283,0
9.49855,0
9.50427,0
9.51,0
9.51572,0
9.52143,0
9.52717,0
9.53288,0
9.5386,0
9.54433,0
9.55005,0
9.55577,0
9.56148,0
9.56722,0
9.57293,0
9.57865,0
9.58438,0
9.5901,0
9.59582,0
9.60155,0
9.60727,0
9.61298,0
9.61872,0
9.62443,0
9.63015,0
9.63588,0
9.6416,0
9.64732,0
9.65305,0
9.65877,0
9.66448,164
9.67022,0
9.67593,0
9.68165,0
9.68737,0
9.6931,0
9.69882,0
9.70453,0
9.71027,0
9.71598,0
9.7217,0
9.72743,0
9.73315,0
9.73887,0
9.7446,0
9.75032,0
9.75603,0
9.76177,0
9.76748,0
9.7732,0
9.77893,0
9.78465,0
9.79037,0
9.7961,0
9.80182,0
9.80753,0
9.81325,0
9.81898,0
9.8247,0
9.83042,0
9.83615,0
9.84187,0
9.84758,0
9.85332,0
9.85903,0
9.86475,0
9.87048,0
9.8762,0
9.88192,0
9.88765,0
9.89337,0
9.89908,0
9.90482,0
9.91053,0
9.91625,0
9.92198,0
9.9277,0
9.93342,0
9.93913,0
9.94487,0
9.95058,0
9.9563,0
9.96203,0
9.96775,0
9.97347,0
9.9792,0
9.98492,0
9.99063,0
9.99637,208
10.0021,380
10.0078,626
10.0135,780
10.0193,426
10.025,500
10.0307,170
10.0364,0
10.0421,0
10.0479,0
10.0536,0
10.0593,0
10.065,0
10.0708,0
10.0765,0
10.0822,0
10.0879,0
10.0936,0
10.0994,0
10.1051,0
10.1108,0
10.1165,0
10.1223,0
10.128,0
10.1337,0
10.1394,0
10.1451,0
10.1509,0
10.1566,0
10.1623,0
10.168,0
10.1738,0
10.1795,0
10.1852,0
10.1909,0
10.1966,0
10.2024,0
10.2081,0
10.2138,0
10.2195,0
10.2252,0
10.231,0
10.2367,0
10.2424,0
10.2481,0
10.2539,158
10.2596,0
10.2653,0
10.271,0
10.2767,0
10.2825,0
10.2882,0
10.2939,0
10.2996,0
10.3054,0
10.3111,0
10.3168,0
10.3225,0
10.3282,0
10.334,0
10.3397,0
10.3454,0
10.3511,0
10.3569,0
10.3626,0
10.3683,0
10.374,0
10.3797,0
10.3855,0
10.3912,0
10.3969,0
10.4026,0
10.4084,0
10.4141,0
10.4198,0
10.4255,0
10.4312,0
10.437,0
10.4427,0
10.4484,0
10.4541,0
10.4598,0
10.4656,0
10.4713,0
10.477,0
10.4827,0
10.4885,0
10.4942,0
10.4999,0
10.5056,0
10.5113,0
10.5171,0
10.5228,0
10.5285,0
10.5342,0
10.54,0
10.5457,0
10.5514,0
10.5571,0
10.5628,0
10.5686,0
10.5743,0
10.58,0
10.5857,0
10.5915,0
10.5972,0
10.6029,0
10.6086,0
10.6143,172
10.6201,0
10.6258,0
10.6315,0
10.6372,0
10.643,0
10.6487,0
10.6544,0
10.6601,0
10.6658,0
10.6716,0
10.6773,0
10.683,0
10.6887,0
10.6945,0
10.7002,154
10.7059,0
10.7116,0
10.7173,0
10.7231,172
10.7288,0
10.7345,0
10.7402,0
10.7459,0
10.7517,0
10.7574,0
10.7631,0
10.7688,0
10.7746,0
10.7803,0
10.786,0
10.7917,0
10.7974,0
10.8032,159
10.8089,0
10.8146,0
10.8203,0
10.8261,0
10.8318,0
10.8375,0
10.8432,0
10.8489,159
10.8547,0
10.8604,0
10.8661,0
10.8718,0
10.8776,0
10.8833,0
10.889,180
10.8947,0
10.9004,0
10.9062,0
10.9119,0
10.9176,0
10.9233,190
10.9291,0
10.9348,0
10.9405,0
10.9462,0
10.9519,0
10.9577,0
10.9634,0
10.9691,0
10.9748,152
10.9805,0
10.9863,0
10.992,0
10.9977,0
11.0034,0
11.0092,0
11.0149,181
11.0206,0
11.0263,0
11.032,0
11.0378,0
11.0435,0
11.0492,0
11.0549,0
11.0607,0
11.0664,0
11.0721,0
11.0778,0
11.0835,156
11.0893,0
11.095,0
11.1007,0
11.1064,0
11.1122,0
11.1179,0
11.1236,196
11.1293,0
11.135,0
11.1408,0
11.1465,0
11.1522,0
11.1579,0
11.1637,0
11.1694,0
11.1751,0
11.1808,0
11.1865,0
11.1923,0
11.198,159
11.2037,0
11.2094,0
11.2151,0
11.2209,0
11.2266,0
11.2323,0
11.238,0
11.2438,158
11.2495,0
11.2552,0
11.2609,0
11.2666,0
11.2724,0
11.2781,0
11.2838,0
11.2895,0
11.2953,0
11.301,0
11.3067,0
11.3124,0
11.3181,0
11.3239,0
11.3296,0
11.3353,0
11.341,0
11.3468,0
11.3525,0
11.3582,0
11.3639,0
11.3696,0
11.3754,0
11.3811,161
11.3868,163
11.3925,393
11.3983,276
11.404,518
11.4097,604
11.4154,153
11.4211,178
11.4269,0
11.4326,0
11.4383,155
11.444,157
11.4498,0
11.4555,0
11.4612,0
11.4669,0
11.4726,0
11.4784,0
11.4841,0
11.4898,0
11.4955,0
11.5012,177
11.507,0
11.5127,0
11.5184,0
11.5241,155
11.5299,199
11.5356,0
11.5413,195
11.547,0
11.5527,207
11.5585,163
11.5642,0
11.5699,0
11.5756,0
11.5814,202
11.5871,0
11.5928,0
11.5985,150
11.6042,0
11.61,0
11.6157,170
11.6214,0
11.6271,0
11.6329,189
11.6386,0
11.6443,0
11.65,0
11.6557,0
11.6615,0
11.6672,0
11.6729,206
11.6786,153
11.6844,161
11.6901,0
11.6958,0
11.7015,0
11.7072,160
11.713,0
11.7187,0
11.7244,0
11.7301,0
11.7358,0
11.7416,230
11.7473,0
11.753,164
11.7587,276
11.7645,0
11.7702,0
11.7759,0
11.7816,204
11.7873,0
11.7931,0
11.7988,0
11.8045,0
11.8102,0
11.816,160
11.8217,176
11.8274,0
11.8331,179
11.8388,0
11.8446,0
11.8503,0
11.856,0
11.8617,198
11.8675,0
11.8732,0
11.8789,155
11.8846,0
11.8903,0
11.8961,155
11.9018,176
11.9075,0
11.9132,155
11.919,231
11.9247,0
11.9304,162
11.9361,0
11.9418,171
11.9476,238
11.9533,0
11.959,0
11.9647,196
11.9704,163
11.9762,0
11.9819,0
11.9876,221
11.9933,186
11.9991,0
12.0048,0
12.0105,0
12.0162,0
12.0219,253
12.0277,151
12.0334,168
12.0391,184
12.0448,0
12.0506,192
12.0563,157
12.062,187
12.0677,201
12.0734,0
12.0792,161
12.0849,157
12.0906,172
12.0963,191
12.1021,0
12.1078,0
12.1135,161
12.1192,176
12.1249,0
12.1307,0
12.1364,179
12.1421,197
12.1478,214
12.1536,0
12.1593,0
12.165,0
12.1707,207
12.1764,164
12.1822,252
12.1879,201
12.1936,0
12.1993,182
12.2051,0
12.2108,177
12.2165,172
12.2222,0
12.2279,0
12.2337,204
12.2394,164
12.2451,221
12.2508,0
12.2565,191
12.2623,175
12.268,248
12.2737,179
12.2794,153
12.2852,155
12.2909,224
12.2966,0
12.3023,203
12.308,0
12.3138,181
12.3195,195
12.3252,0
12.3309,170
12.3367,0
12.3424,214
12.3481,163
12.3538,0
12.3595,161
12.3653,170
12.371,0
12.3767,0
12.3824,0
12.3882,226
12.3939,228
12.3996,0
12.4053,0
12.411,162
12.4168,150
12.4225,153
12.4282,206
12.4339,241
12.4397,195
12.4454,152
12.4511,156
12.4568,200
12.4625,183
12.4683,276
12.474,165
12.4797,198
12.4854,161
12.4911,0
12.4969,159
12.5026,158
12.5083,220
12.514,171
12.5198,192
12.5255,153
12.5312,267
12.5369,206
12.5426,0
12.5484,192
12.5541,276
12.5598,195
12.5655,253
12.5713,153
12.577,159
12.5827,0
12.5884,0
12.5941,194
12.5999,212
12.6056,0
12.6113,160
12.617,237
12.6228,0
12.6285,199
12.6342,0
12.6399,176
12.6456,209
12.6514,0
12.6571,0
12.6628,226
12.6685,176
12.6743,421
12.68,501
12.6857,655
12.6914,583
12.6971,541
12.7029,166
12.7086,323
12.7143,157
12.72,298
12.7257,210
12.7315,181
12.7372,206
12.7429,196
12.7486,190
12.7544,260
12.7601,238
12.7658,0
12.7715,216
12.7772,218
12.783,251
12.7887,193
12.7944,262
12.8001,248
12.8059,271
12.8116,233
12.8173,231
12.823,247
12.8287,272
12.8345,214
12.8402,0
12.8459,0
12.8516,190
12.8574,305
12.8631,189
12.8688,193
12.8745,175
12.8802,200
12.886,157
12.8917,236
12.8974,251
12.9031,222
12.9089,0
12.9146,279
12.9203,196
12.926,195
12.9317,211
12.9375,224
12.9432,318
12.9489,183
12.9546,246
12.9604,253
12.9661,208
12.9718,452
12.9775,289
12.9832,0
12.989,192
12.9947,225
13.0004,244
13.0061,245
13.0118,250
13.0176,462
13.0233,287
13.029,188
13.0347,483
13.0405,539
13.0462,270
13.0519,178
13.0576,208
13.0633,320
13.0691,215
13.0748,277
13.0805,268
13.0862,268
13.092,265
13.0977,234
13.1034,334
13.1091,387
13.1148,176
13.1206,315
13.1263,272
13.132,285
13.1377,202
13.1435,300
13.1492,186
13.1549,243
13.1606,320
13.1663,351
13.1721,295
13.1778,218
13.1835,373
13.1892,482
13.195,412
13.2007,347
13.2064,262
13.2121,294
13.2178,302
13.2236,332
13.2293,278
13.235,341
13.2407,419
13.2464,294
13.2522,297
13.2579,264
13.2636,460
13.2693,277
13.2751,316
13.2808,286
13.2865,265
13.2922,250
13.2979,255
13.3037,512
13.3094,288
13.3151,230
13.3208,302
13.3266,367
13.3323,254
13.338,363
13.3437,489
13.3494,389
13.3552,374
13.3609,343
13.3666,437
13.3723,307
13.3781,187
13.3838,298
13.3895,522
13.3952,329
13.4009,454
13.4067,462
13.4124,537
13.4181,290
13.4238,312
13.4296,268
13.4353,266
13.441,462
13.4467,232
13.4524,294
13.4582,374
13.4639,266
13.4696,402
13.4753,442
13.481,314
13.4868,408
13.4925,614
13.4982,363
13.5039,234
13.5097,299
13.5154,286
13.5211,250
13.5268,230
13.5325,432
13.5383,423
13.544,283
13.5497,567
13.5554,323
13.5612,370
13.5669,308
13.5726,410
13.5783,462
13.584,297
13.5898,395
13.5955,498
13.6012,319
13.6069,466
13.6127,412
13.6184,611
13.6241,447
13.6298,536
13.6355,325
13.6413,530
13.647,306
13.6527,351
13.6584,498
13.6642,371
13.6699,570
13.6756,477
13.6813,533
13.687,626
13.6928,406
13.6985,454
13.7042,348
13.7099,581
13.7157,586
13.7214,440
13.7271,294
13.7328,581
13.7385,319
13.7443,423
13.75,534
13.7557,376
13.7614,531
13.7671,458
13.7729,564
13.7786,499
13.7843,311
13.79,656
13.7958,526
13.8015,315
13.8072,713
13.8129,416
13.8186,436
13.8244,446
13.8301,692
13.8358,819
13.8415,854
13.8473,805
13.853,792
13.8587,1171
13.8644,612
13.8701,518
13.8759,454
13.8816,625
13.8873,775
13.893,467
13.8988,762
13.9045,626
13.9102,678
13.9159,634
13.9216,751
13.9274,591
13.9331,507
13.9388,639
13.9445,678
13.9503,680
13.956,585
13.9617,593
13.9674,912
13.9731,640
13.9789,660
13.9846,790
13.9903,623
13.996,723
14.0017,657
14.0075,575
14.0132,586
14.0189,735
14.0246,619
14.0304,711
14.0361,394
14.0418,718
14.0475,582
14.0532,450
14.059,531
14.0647,636
14.0704,786
14.0761,494
14.0819,605
14.0876,554
14.0933,819
14.099,652
14.1047,603
14.1105,656
14.1162,753
14.1219,461
14.1276,760
14.1334,597
14.1391,760
14.1448,592
14.1505,701
14.1562,635
14.162,672
14.1677,674
14.1734,908
14.1791,612
14.1849,616
14.1906,744
14.1963,818
14.202,685
14.2077,730
14.2135,1134
14.2192,2080
14.2249,3609
14.2306,3900
14.2364,3442
14.2421,2984
14.2478,1260
14.2535,1266
14.2592,574
14.265,813
14.2707,695
14.2764,863
14.2821,659
14.2878,643
14.2936,827
14.2993,768
14.305,857
14.3107,560
14.3165,754
14.3222,722
14.3279,992
14.3336,951
14.3393,714
14.3451,701
14.3508,775
14.3565,777
14.3622,895
14.368,908
14.3737,828
14.3794,730
14.3851,737
14.3908,925
14.3966,1150
14.4023,860
14.408,765
14.4137,662
14.4195,839
14.4252,782
14.4309,896
14.4366,1014
14.4423,717
14.4481,1237
14.4538,1047
14.4595,485
14.4652,773
14.471,1135
14.4767,952
14.4824,734
14.4881,877
14.4938,988
14.4996,731
14.5053,918
14.511,867
14.5167,961
14.5224,903
14.5282,1143
14.5339,770
14.5396,838
14.5453,878
14.5511,1123
14.5568,895
14.5625,1020
14.5682,864
14.5739,1070
14.5797,994
14.5854,842
14.5911,790
14.5968,1034
14.6026,997
14.6083,900
14.614,810
14.6197,761
14.6254,771
14.6312,1040
14.6369,1218
14.6426,789
14.6483,995
14.6541,1097
14.6598,890
14.6655,1353
14.6712,1123
14.6769,1481
14.6827,955
14.6884,1206
14.6941,1142
14.6998,881
14.7056,1288
14.7113,918
14.717,1230
14.7227,846
14.7284,1175
14.7342,1423
14.7399,1032
14.7456,1096
14.7513,1046
14.757,1183
14.7628,977
14.7685,1136
14.7742,1371
14.7799,1396
14.7857,1153
14.7914,1341
14.7971,1269
14.8028,939
14.8085,1262
14.8143,1058
14.82,1174
14.8257,818
14.8314,1401
14.8372,1216
14.8429,1305
14.8486,1169
14.8543,1072
14.86,1278
14.8658,1239
14.8715,1049
14.8772,1061
14.8829,1267
14.8887,1126
14.8944,1398
14.9001,1193
14.9058,1427
14.9115,1860
14.9173,1201
14.923,1427
14.9287,1502
14.9344,1339
14.9402,1264
14.9459,1387
14.9516,1215
14.9573,1205
14.963,1531
14.9688,1407
14.9745,1270
14.9802,965
14.9859,1504
14.9917,1378
14.9974,1656
15.0031,1209
15.0088,1197
15.0145,1718
15.0203,1348
15.026,1232
15.0317,1247
15.0374,1495
15.0431,1709
15.0489,1585
15.0546,1487
15.0603,1324
15.066,1163
15.0718,1606
15.0775,1433
15.0832,1151
15.0889,1320
15.0946,1491
15.1004,1510
15.1061,1634
15.1118,1459
15.1175,1526
15.1233,1766
15.129,2048
15.1347,1411
15.1404,1716
15.1461,1398
15.1519,1597
15.1576,1726
15.1633,1802
15.169,1636
15.1748,1875
15.1805,1844
15.1862,1351
15.1919,1407
15.1976,1471
15.2034,1642
15.2091,1495
15.2148,1676
15.2205,1304
15.2263,1487
15.232,1642
15.2377,1810
15.2434,1336
15.2491,1400
15.2549,1683
15.2606,1318
15.2663,1656
15.272,1619
15.2777,1917
15.2835,1657
15.2892,1942
15.2949,1503
15.3006,1886
15.3064,2093
15.3121,1629
15.3178,2044
15.3235,1842
15.3292,1935
15.335,2020
15.3407,2078
15.3464,1869
15.3521,2243
15.3579,1940
15.3636,2329
15.3693,2256
15.375,2095
15.3807,2063
15.3865,2099
15.3922,2091
15.3979,1958
15.4036,1814
15.4094,2031
15.4151,2186
15.4208,2038
15.4265,2056
15.4322,2367
15.438,1811
15.4437,2438
15.4494,2347
15.4551,2366
15.4609,2311
15.4666,2501
15.4723,2022
15.478,1816
15.4837,2266
15.4895,2407
15.4952,1983
15.5009,2127
15.5066,1820
15.5123,2111
15.5181,1999
15.5238,2245
15.5295,1842
15.5352,2339
15.541,2285
15.5467,1680
15.5524,2251
15.5581,2392
15.5638,2262
15.5696,2681
15.5753,2334
15.581,2254
15.5867,2440
15.5925,2464
15.5982,2355
15.6039,2713
15.6096,2606
15.6153,2253
15.6211,2595
15.6268,2413
15.6325,2016
15.6382,2656
15.644,2359
15.6497,2411
15.6554,2348
15.6611,2561
15.6668,2113
15.6726,2251
15.6783,2393
15.684,2572
15.6897,2630
15.6955,3157
15.7012,2739
15.7069,2513
15.7126,2448
15.7183,2366
15.7241,2989
15.7298,2272
15.7355,3038
15.7412,2933
15.747,3220
15.7527,2341
15.7584,2871
15.7641,2853
15.7698,3395
15.7756,3014
15.7813,3230
15.787,2632
15.7927,3358
15.7984,2519
15.8042,2856
15.8099,2907
15.8156,2985
15.8213,2792
15.8271,2863
15.8328,3095
15.8385,2438
15.8442,2258
15.8499,3454
15.8557,2423
15.8614,3016
15.8671,3043
15.8728,3339
15.8786,2935
15.8843,3122
15.89,3380
15.8957,3347
15.9014,3009
15.9072,3325
15.9129,3501
15.9186,3767
15.9243,3758
15.9301,3392
15.9358,3590
15.9415,3403
15.9472,2777
15.9529,3410
15.9587,2995
15.9644,3315
15.9701,3539
15.9758,3429
15.9816,3419
15.9873,3153
15.993,2635
15.9987,3473
16.0044,3696
16.0101,3166
16.0159,3593
16.0216,3423
16.0273,3625
16.033,3507
16.0388,3256
16.0445,3782
16.0502,3177
16.0559,3194
16.0617,3620
16.0674,3025
16.0731,3537
16.0788,3456
16.0845,3865
16.0903,3757
16.096,3510
16.1017,3633
16.1074,4225
16.1132,3615
16.1189,3367
16.1246,3828
16.1303,4247
16.136,3664
16.1417,3023
16.1475,4121
16.1532,3576
16.1589,4145
16.1647,3561
16.1704,4002
16.1761,3469
16.1818,4603
16.1875,4026
16.1932,3748
16.199,3779
16.2047,3805
16.2104,3292
16.2161,4448
16.2219,4005
16.2276,4443
16.2333,4283
16.239,3903
16.2448,4166
16.2505,4324
16.2562,4042
16.2619,4076
16.2676,4154
16.2734,4352
16.2791,3921
16.2848,3961
16.2905,4078
16.2963,4166
16.302,3862
16.3077,3916
16.3134,4390
16.3191,4183
16.3249,3926
16.3306,4281
16.3363,4470
16.342,4308
16.3478,4361
16.3535,4170
16.3592,3794
16.3649,3902
16.3706,4549
16.3764,4811
16.3821,4790
16.3878,4479
16.3935,4777
16.3992,4455
16.405,4219
16.4107,4572
16.4164,4749
16.4221,3976
16.4278,4851
16.4336,4578
16.4393,4957
16.445,5199
16.4507,4821
16.4565,4947
16.4622,4695
16.4679,4961
16.4736,5159
16.4794,4845
16.4851,4588
16.4908,4611
16.4965,5158
16.5023,4695
16.508,4694
16.5137,5101
16.5194,5262
16.5251,5143
16.5309,4891
16.5366,5085
16.5423,4638
16.548,4612
16.5537,5645
16.5595,5278
16.5652,5529
16.5709,5191
16.5766,5348
16.5824,5079
16.5881,5752
16.5938,5082
16.5995,5510
16.6052,4907
16.611,5006
16.6167,5381
16.6224,5839
16.6281,5699
16.6338,6164
16.6396,5792
16.6453,5731
16.651,5992
16.6567,5611
16.6625,5789
16.6682,6025
16.6739,5663
16.6796,5693
16.6854,6099
16.6911,5478
16.6968,5856
16.7025,5483
16.7082,5678
16.714,5787
16.7197,6178
16.7254,5036
16.7311,5438
16.7369,5773
16.7426,6080
16.7483,5233
16.754,6049
16.7597,6357
16.7655,6551
16.7712,5894
16.7769,5906
16.7826,6348
16.7883,6105
16.7941,6264
16.7998,6248
16.8055,5988
16.8112,6675
16.8169,6463
16.8227,6516
16.8284,6556
16.8341,5457
16.8398,6238
16.8456,7009
16.8513,6370
16.857,6610
16.8627,7182
16.8684,6660
16.8742,6581
16.8799,5866
16.8856,6954
16.8913,5954
16.8971,6661
16.9028,6599
16.9085,6512
16.9142,6422
16.92,6153
16.9257,6201
16.9314,6984
16.9371,6936
16.9428,7064
16.9486,6082
16.9543,7094
16.96,7306
16.9657,6938
16.9715,7082
16.9772,6857
16.9829,6355
16.9886,6180
16.9943,7375
17.0001,7212
17.0058,6780
17.0115,7618
17.0172,6840
17.0229,7130
17.0287,7582
17.0344,6513
17.0401,7414
17.0458,7219
17.0515,8242
17.0573,7333
17.063,6972
17.0687,7186
17.0744,7771
17.0802,7434
17.0859,7190
17.0916,7446
17.0973,7479
17.1031,7119
17.1088,7880
17.1145,7742
17.1202,7176
17.1259,7755
17.1317,7958
17.1374,8147
17.1431,7991
17.1488,7670
17.1546,7991
17.1603,8009
17.166,7757
17.1717,8354
17.1774,8033
17.1832,8342
17.1889,7754
17.1946,8381
17.2003,8281
17.2061,8295
17.2118,8303
17.2175,8661
17.2232,8006
17.2289,7715
17.2346,8779
17.2404,8818
17.2461,8124
17.2518,8336
17.2575,8656
17.2633,8089
17.269,8151
17.2747,9132
17.2804,9042
17.2861,8754
17.2919,9312
17.2976,9137
17.3033,9006
17.309,9224
17.3148,8945
17.3205,8812
17.3262,9280
17.3319,8897
17.3377,8742
17.3434,9342
17.3491,8571
17.3548,9209
17.3605,8582
17.3663,9121
17.372,8188
17.3777,10100
17.3834,9033
17.3892,9823
17.3949,9556
17.4006,9610
17.4063,9329
17.412,8603
17.4178,9211
17.4235,9292
17.4292,9531
17.4349,9554
17.4407,9326
17.4464,9331
17.4521,10426
17.4578,9874
17.4635,9364
17.4692,9685
17.475,9306
17.4807,9377
17.4864,9885
17.4922,10590
17.4979,9558
17.5036,9956
17.5093,9633
17.515,11752
17.5208,16352
17.5265,22871
17.5322,26884
17.5379,27189
17.5436,21236
17.5494,16769
17.5551,12653
17.5608,11039
17.5665,11589
17.5723,11425
17.578,10714
17.5837,10951
17.5894,11205
17.5951,10647
17.6009,11332
17.6066,11025
17.6123,10066
17.618,10235
17.6238,11105
17.6295,10585
17.6352,11083
17.6409,10833
17.6466,10527
17.6524,10226
17.6581,10861
17.6638,11381
17.6695,11567
17.6753,11469
17.681,11001
17.6867,11623
17.6924,11878
17.6981,11071
17.7038,11379
17.7096,11733
17.7153,10398
17.721,11364
17.7267,10318
17.7325,12018
17.7382,12081
17.7439,11952
17.7496,11879
17.7554,12143
17.7611,11140
17.7668,11947
17.7725,11706
17.7782,11897
17.784,12131
17.7897,12397
17.7954,11216
17.8011,12429
17.8069,11902
17.8126,11637
17.8183,12482
17.824,12116
17.8297,12877
17.8355,12283
17.8412,11965
17.8469,11508
17.8526,13591
17.8584,12701
17.8641,13175
17.8698,12740
17.8755,12211
17.8812,12684
17.887,12866
17.8927,12009
17.8984,12542
17.9041,12971
17.9099,12993
17.9156,12898
17.9213,12423
17.927,12841
17.9327,13220
17.9385,13277
17.9442,12750
17.9499,13231
17.9556,13286
17.9613,13792
17.9671,13391
17.9728,13098
17.9785,13209
17.9842,13141
17.99,13437
17.9957,13397
18.0014,12861
18.0071,13283
18.0129,14055
18.0186,13566
18.0243,13913
18.03,13443
18.0357,13385
18.0415,13442
18.0472,13808
18.0529,13580
18.0586,13592
18.0643,14006
18.0701,13237
18.0758,13424
18.0815,13775
18.0872,13201
18.093,13530
18.0987,13878
18.1044,13363
18.1101,14240
18.1158,14364
18.1216,13686
18.1273,14078
18.133,14622
18.1387,13889
18.1445,15255
18.1502,14731
18.1559,14919
18.1616,14027
18.1673,14443
18.1731,15636
18.1788,14756
18.1845,14209
18.1902,14261
18.196,15299
18.2017,14813
18.2074,14496
18.2131,15253
18.2188,16358
18.2246,15344
18.2303,15520
18.236,15180
18.2417,15544
18.2475,15214
18.2532,14605
18.2589,14577
18.2646,15301
18.2703,15490
18.2761,15165
18.2818,14702
18.2875,14421
18.2932,14644
18.2989,15249
18.3047,15462
18.3104,15813
18.3161,14878
18.3218,16488
18.3276,15903
18.3333,15813
18.339,16472
18.3447,15913
18.3504,16125
18.3562,15745
18.3619,15489
18.3676,16288
18.3733,15526
18.379,16293
18.3848,16609
18.3905,16000
18.3962,16330
18.4019,16461
18.4077,15858
18.4134,17103
18.4191,16799
18.4248,16384
18.4306,16444
18.4363,16774
18.442,16087
18.4477,16619
18.4534,15864
18.4592,16536
18.4649,17010
18.4706,17466
18.4763,16725
18.4821,17452
18.4878,16814
18.4935,16829
18.4992,18340
18.5049,17541
18.5107,16956
18.5164,16518
18.5221,17374
18.5278,16839
18.5336,17724
18.5393,16857
18.545,18048
18.5507,17003
18.5564,16883
18.5622,17232
18.5679,17423
18.5736,17216
18.5793,16711
18.585,17144
18.5908,17913
18.5965,17294
18.6022,17291
18.6079,16814
18.6137,18189
18.6194,17465
18.6251,18616
18.6308,17783
18.6365,17078
18.6423,18501
18.648,18425
18.6537,18214
18.6594,17809
18.6652,17121
18.6709,17767
18.6766,18621
18.6823,18530
18.688,18056
18.6938,18978
18.6995,18453
18.7052,17281
18.7109,17595
18.7167,19115
18.7224,18425
18.7281,17706
18.7338,18823
18.7395,17980
18.7453,18913
18.751,18620
18.7567,18199
18.7624,18205
18.7682,19467
18.7739,18125
18.7796,19810
18.7853,18203
18.791,18506
18.7967,18345
18.8025,19087
18.8082,19595
18.8139,19434
18.8196,19008
18.8254,18156
18.8311,19414
18.8368,20431
18.8425,19756
18.8483,20318
18.854,19160
18.8597,19789
18.8654,18994
18.8711,18283
18.8769,18987
18.8826,19039
18.8883,19538
18.894,18668
18.8998,20014
18.9055,19012
18.9112,18741
18.9169,19179
18.9226,18238
18.9284,19552
18.9341,19742
18.9398,20293
18.9455,18860
18.9513,18985
18.957,19507
18.9627,19436
18.9684,20888
18.9741,20727
18.9799,20571
18.9856,20571
18.9913,20174
18.997,20476
19.0028,19560
19.0085,19629
19.0142,20465
19.0199,20607
19.0256,19753
19.0314,19968
19.0371,21057
19.0428,20278
19.0485,20729
19.0542,20731
19.06,20049
19.0657,20076
19.0714,20985
19.0771,19911
19.0829,20372
19.0886,21559
19.0943,20185
19.1,20830
19.1057,20794
19.1115,19568
19.1172,19944
19.1229,19704
19.1286,20344
19.1344,20714
19.1401,20707
19.1458,19982
19.1515,20160
19.1572,21188
19.163,19700
19.1687,20201
19.1744,19831
19.1801,21040
19.1859,19552
19.1916,20711
19.1973,20266
19.203,22776
19.2087,21557
19.2144,22002
19.2202,20499
19.2259,20293
19.2316,22076
19.2373,20691
19.2431,20874
19.2488,20638
19.2545,20283
19.2602,21323
19.266,20833
19.2717,19881
19.2774,20166
19.2831,21996
19.2889,20659
19.2946,21518
19.3003,20834
19.306,20947
19.3117,21272
19.3175,20373
19.3232,20815
19.3289,21019
19.3346,20723
19.3403,20722
19.3461,19980
19.3518,20684
19.3575,21183
19.3632,20796
19.369,21853
19.3747,21010
19.3804,21620
19.3861,20403
19.3918,21423
19.3976,21579
19.4033,20230
19.409,20746
19.4147,21103
19.4205,21213
19.4262,21854
19.4319,21280
19.4376,21685
19.4433,21118
19.4491,20891
19.4548,20787
19.4605,20776
19.4662,21315
19.472,20269
19.4777,19863
19.4834,21799
19.4891,20096
19.4948,21273
19.5006,21007
19.5063,20695
19.512,21464
19.5177,20637
19.5235,21071
19.5292,20623
19.5349,21007
19.5406,21089
19.5463,20343
19.5521,21427
19.5578,20852
19.5635,20876
19.5692,20757
19.5749,20593
19.5807,21799
19.5864,20001
19.5921,21661
19.5978,20757
19.6036,21164
19.6093,20777
19.615,21067
19.6207,21068
19.6264,21849
19.6322,21035
19.6379,20697
19.6436,22072
19.6493,21330
19.655,20254
19.6608,20610
19.6665,21050
19.6722,21585
19.6779,20749
19.6837,22019
19.6894,20862
19.6951,21002
19.7008,20839
19.7066,20535
19.7123,21173
19.718,21334
19.7237,20467
19.7294,20733
19.7352,21305
19.7409,22540
19.7466,20214
19.7523,20928
19.7581,21656
19.7638,21250
19.7695,20748
19.7752,21353
19.7809,21762
19.7867,21427
19.7924,21409
19.7981,20272
19.8038,21371
19.8095,22551
19.8153,20222
19.821,21401
19.8267,22133
19.8324,21257
19.8382,21579
19.8439,21444
19.8496,20947
19.8553,21036
19.861,21818
19.8668,20337
19.8725,22949
19.8782,21262
19.8839,21197
19.8897,21235
19.8954,20666
19.9011,21263
19.9068,21367
19.9125,20929
19.9183,19379
19.924,21318
19.9297,21045
19.9354,21631
19.9412,22277
19.9469,21101
19.9526,21563
19.9583,21445
19.964,21088
19.9698,22129
19.9755,20832
19.9812,21367
19.9869,20384
19.9927,21084
19.9984,22293
20.0041,21750
20.0098,20751
20.0155,21968
20.0213,21456
20.027,20361
20.0327,20690
20.0384,21150
20.0442,21542
20.0499,21439
20.0556,20377
20.0613,20923
20.067,21479
20.0727,22074
20.0785,20446
20.0842,21414
20.0899,20099
20.0956,20979
20.1014,21797
20.1071,20671
20.1128,21539
20.1185,21590
20.1243,21318
20.13,20779
20.1357,21060
20.1414,21699
20.1471,20949
20.1529,21412
20.1586,21343
20.1643,21835
20.17,21076
20.1758,21744
20.1815,21403
20.1872,20623
20.1929,21609
20.1986,21546
20.2044,21345
20.2101,21651
20.2158,20627
20.2215,21063
20.2273,21429
20.233,20993
20.2387,20860
20.2444,20881
20.2501,21208
20.2559,20571
20.2616,20800
20.2673,21959
20.273,20627
20.2788,21345
20.2845,21332
20.2902,21038
20.2959,21542
20.3016,20933
20.3074,21361
20.3131,20896
20.3188,20535
20.3245,21810
20.3302,21645
20.336,22218
20.3417,21752
20.3474,20791
20.3531,21916
20.3589,21563
20.3646,20680
20.3703,21041
20.376,21219
20.3817,20818
20.3875,20307
20.3932,21297
20.3989,20662
20.4046,22131
20.4104,21590
20.4161,21319
20.4218,21214
20.4275,19896
20.4332,20532
20.439,21115
20.4447,21081
20.4504,20352
20.4561,21105
20.4619,21867
20.4676,20818
20.4733,20350
20.479,20860
20.4847,19809
20.4905,21889
20.4962,20226
20.5019,21133
20.5076,21867
20.5134,21113
20.5191,21745
20.5248,20526
20.5305,22285
20.5362,20446
20.542,20961
20.5477,20901
20.5534,20722
20.5591,20826
20.5648,22233
20.5706,22135
20.5763,21632
20.582,20828
20.5877,21553
20.5935,20400
20.5992,21387
20.6049,20785
20.6106,20117
20.6163,21549
20.6221,21446
20.6278,21077
20.6335,21727
20.6392,21645
20.645,21346
20.6507,21786
20.6564,20968
20.6621,21800
20.6678,21742
20.6736,20804
20.6793,21285
20.685,21969
20.6907,21241
20.6965,20096
20.7022,21784
20.7079,20941
20.7136,21640
20.7193,21209
20.7251,20724
20.7308,20850
20.7365,21513
20.7422,21450
20.7479,21501
20.7537,21607
20.7594,21282
20.7651,20787
20.7708,20584
20.7766,20709
20.7823,20875
20.788,21169
20.7937,21680
20.7995,21046
20.8052,21379
20.8109,20979
20.8166,22272
20.8223,21253
20.8281,22112
20.8338,19886
20.8395,21260
20.8452,22018
20.8509,21626
20.8567,21657
20.8624,21358
20.8681,20978
20.8738,21265
20.8796,21226
20.8853,21969
20.891,22374
20.8967,20823
20.9024,21463
20.9082,21699
20.9139,21536
20.9196,21554
20.9253,20949
20.9311,20719
20.9368,22790
20.9425,21852
20.9482,21096
20.9539,21891
20.9597,21482
20.9654,20285
20.9711,22075
20.9768,21996
20.9826,21728
20.9883,21697
20.994,21711
20.9997,20453
21.0054,21575
21.0112,21510
21.0169,21091
21.0226,21129
21.0283,22024
21.0341,21390
21.0398,20981
21.0455,21436
21.0512,21190
21.0569,21308
21.0627,20645
21.0684,21211
21.0741,20962
21.0798,21978
21.0855,21217
21.0913,20774
21.097,22407
21.1027,21970
21.1084,20998
21.1142,20986
21.1199,20602
21.1256,21001
21.1313,22197
21.137,21400
21.1428,20670
21.1485,21683
21.1542,21043
21.1599,20585
21.1656,20724
21.1714,21831
21.1771,21854
21.1828,21674
21.1885,21133
21.1943,22413
21.2,22218
21.2057,22105
21.2114,21165
21.2172,22226
21.2229,21944
21.2286,21695
21.2343,21115
21.24,21487
21.2458,20909
21.2515,21771
21.2572,21251
21.2629,21204
21.2687,20062
21.2744,21072
21.2801,21171
21.2858,21889
21.2915,21196
21.2973,20951
21.303,21038
21.3087,21642
21.3144,21481
21.3201,20271
21.3259,20888
21.3316,21557
21.3373,22146
21.343,21168
21.3488,20709
21.3545,21161
21.3602,21281
21.3659,20194
21.3716,20006
21.3774,20054
21.3831,21780
21.3888,21842
21.3945,20386
21.4003,20333
21.406,21374
21.4117,21528
21.4174,21388
21.4231,21483
21.4289,22137
21.4346,20756
21.4403,20590
21.446,21410
21.4518,21318
21.4575,21129
21.4632,21362
21.4689,22262
21.4746,20807
21.4804,21957
21.4861,20684
21.4918,21876
21.4975,21131
21.5033,22137
21.509,22451
21.5147,21310
21.5204,21771
21.5261,21385
21.5319,21463
21.5376,22394
21.5433,20976
21.549,21379
21.5548,22047
21.5605,22417
21.5662,21047
21.5719,21701
21.5776,21720
21.5833,22574
21.5891,21604
21.5948,21426
21.6005,21057
21.6062,22202
21.612,20805
21.6177,22097
21.6234,21401
21.6291,21691
21.6349,21430
21.6406,21633
21.6463,22100
21.652,22125
21.6577,21124
21.6635,21681
21.6692,20740
21.6749,21788
21.6806,21233
21.6864,21859
21.6921,20420
21.6978,20532
21.7035,21432
21.7092,21342
21.715,21243
21.7207,22189
21.7264,22277
21.7321,20925
21.7379,21214
21.7436,21453
21.7493,20954
21.755,22024
21.7607,20189
21.7665,22605
21.7722,21364
21.7779,21170
21.7836,21319
21.7894,21694
21.7951,20752
21.8008,20354
21.8065,20903
21.8122,21267
21.818,21593
21.8237,21590
21.8294,21663
21.8351,22018
21.8408,20741
21.8466,21526
21.8523,20312
21.858,21669
21.8637,20978
21.8695,20186
21.8752,21255
21.8809,21262
21.8866,22079
21.8923,22446
21.8981,22089
21.9038,20710
21.9095,21675
21.9152,21397
21.921,22081
21.9267,21058
21.9324,22344
21.9381,20038
21.9438,22274
21.9496,20862
21.9553,21378
21.961,21999
21.9667,22439
21.9725,21209
21.9782,22314
21.9839,21552
21.9896,21122
21.9953,21991
22.001,20836
22.0068,20773
22.0125,21336
22.0182,21880
22.024,21360
22.0297,21431
22.0354,22246
22.0411,21030
22.0468,20570
22.0526,21617
22.0583,21953
22.064,21525
22.0697,21012
22.0755,21830
22.0812,21761
22.0869,21355
22.0926,22551
22.0983,21830
22.1041,21951
22.1098,21247
22.1155,22619
22.1212,21360
22.1269,21808
22.1327,21783
22.1384,20801
22.1441,20824
22.1498,22020
22.1556,21724
22.1613,22406
22.167,20816
22.1727,21657
22.1784,21833
22.1842,21303
22.1899,22367
22.1956,21531
22.2013,20693
22.2071,21643
22.2128,21480
22.2185,20583
22.2242,21471
22.2299,22525
22.2357,20116
22.2414,20965
22.2471,21999
22.2528,21097
22.2586,22509
22.2643,21361
22.27,21171
22.2757,20320
22.2814,21341
22.2872,21091
22.2929,21763
22.2986,21346
22.3043,21197
22.3101,21634
22.3158,22182
22.3215,20707
22.3272,21908
22.3329,21689
22.3387,20755
22.3444,20948
22.3501,20837
22.3558,20332
22.3615,20423
22.3673,20865
22.373,21089
22.3787,22054
22.3844,21766
22.3902,21225
22.3959,21251
22.4016,21302
22.4073,20318
22.413,21483
22.4188,22016
22.4245,21836
22.4302,20660
22.4359,21889
22.4417,21491
22.4474,21426
22.4531,20695
22.4588,21166
22.4645,20726
22.4703,21453
22.476,20987
22.4817,21704
22.4874,21354
22.4932,22040
