C:\MSDCHEM\1\DATA\MANDKHAI\20180626 MTH_C12COA\SLR_WT_NltAB_old_1_redo.d 27 Jun 18   4:18 pm
Start of data points
5.0927,364
5.09843,205
5.10415,321
5.10987,212
5.11558,293
5.12132,196
5.12703,207
5.13275,377
5.13848,247
5.1442,199
5.14992,246
5.15565,389
5.16137,359
5.16708,195
5.17282,191
5.17853,152
5.18425,182
5.18998,358
5.1957,169
5.20142,151
5.20715,0
5.21287,203
5.21858,219
5.22432,0
5.23003,267
5.23575,202
5.24147,0
5.2472,196
5.25292,0
5.25863,0
5.26437,161
5.27008,0
5.2758,151
5.28153,164
5.28725,0
5.29297,0
5.2987,460
5.30442,1497
5.31013,2748
5.31587,3605
5.32158,3879
5.3273,3661
5.33303,4334
5.33875,3670
5.34447,3633
5.3502,3770
5.35592,3643
5.36163,3390
5.36735,2855
5.37308,2800
5.3788,2604
5.38452,2577
5.39025,2515
5.39597,2372
5.40168,2082
5.40742,2285
5.41313,1999
5.41885,2306
5.42458,2188
5.4303,1839
5.43602,1919
5.44175,1879
5.44747,1458
5.45318,1552
5.45892,1017
5.46463,1372
5.47035,932
5.47608,1325
5.4818,1029
5.48752,1174
5.49323,1166
5.49897,1107
5.50468,1002
5.5104,1029
5.51613,800
5.52185,692
5.52757,833
5.5333,981
5.53902,673
5.54473,699
5.55047,528
5.55618,879
5.5619,689
5.56763,739
5.57335,577
5.57907,362
5.5848,682
5.59052,234
5.59623,408
5.60197,383
5.60768,515
5.6134,582
5.61912,543
5.62485,409
5.63057,220
5.63628,0
5.64202,229
5.64773,329
5.65345,379
5.65918,209
5.6649,177
5.67062,305
5.67635,0
5.68207,364
5.68778,0
5.69352,223
5.69923,209
5.70495,397
5.71068,151
5.7164,0
5.72212,176
5.72785,208
5.73357,342
5.73928,152
5.745,0
5.75073,167
5.75645,170
5.76217,0
5.7679,0
5.77362,0
5.77933,0
5.78507,0
5.79078,0
5.7965,169
5.80223,0
5.80795,0
5.81367,0
5.8194,0
5.82512,0
5.83083,0
5.83657,0
5.84228,306
5.848,0
5.85373,0
5.85945,0
5.86517,0
5.87088,0
5.87662,0
5.88233,0
5.88805,0
5.89378,0
5.8995,0
5.90522,0
5.91095,0
5.91667,0
5.92238,0
5.92812,167
5.93383,0
5.93955,0
5.94528,0
5.951,0
5.95672,155
5.96245,0
5.96817,0
5.97388,158
5.97962,0
5.98533,0
5.99105,0
5.99677,0
6.0025,0
6.00822,0
6.01393,0
6.01967,0
6.02538,152
6.0311,0
6.03683,152
6.04255,0
6.04827,0
6.054,0
6.05972,0
6.06543,0
6.07117,0
6.07688,154
6.0826,0
6.08833,166
6.09405,161
6.09977,0
6.1055,0
6.11122,157
6.11693,0
6.12265,0
6.12838,0
6.1341,0
6.13982,0
6.14555,0
6.15127,0
6.15698,0
6.16272,0
6.16843,0
6.17415,0
6.17988,0
6.1856,0
6.19132,0
6.19705,0
6.20277,0
6.20848,0
6.21422,0
6.21993,155
6.22565,0
6.23138,0
6.2371,0
6.24282,0
6.24853,194
6.25427,188
6.25998,0
6.2657,0
6.27143,0
6.27715,157
6.28287,0
6.2886,0
6.29432,0
6.30003,0
6.30577,0
6.31148,0
6.3172,0
6.32293,0
6.32865,151
6.33437,0
6.3401,166
6.34582,0
6.35153,0
6.35727,0
6.36298,0
6.3687,0
6.37442,0
6.38015,0
6.38587,0
6.39158,0
6.39732,0
6.40303,0
6.40875,0
6.41448,0
6.4202,0
6.42592,0
6.43165,0
6.43737,0
6.44308,0
6.44882,0
6.45453,151
6.46025,0
6.46598,0
6.4717,0
6.47742,0
6.48315,0
6.48887,0
6.49458,0
6.5003,188
6.50603,0
6.51175,0
6.51747,0
6.5232,173
6.52892,437
6.53463,424
6.54037,298
6.54608,423
6.5518,504
6.55753,258
6.56325,292
6.56897,186
6.5747,0
6.58042,179
6.58613,0
6.59187,0
6.59758,0
6.6033,0
6.60903,0
6.61475,0
6.62047,0
6.62618,0
6.63192,0
6.63763,0
6.64335,0
6.64908,0
6.6548,0
6.66052,0
6.66625,0
6.67197,0
6.67768,0
6.68342,0
6.68913,0
6.69485,0
6.70058,0
6.7063,0
6.71202,170
6.71775,342
6.72347,1119
6.72918,2716
6.73492,4657
6.74063,6141
6.74635,6765
6.75207,5615
6.7578,4411
6.76352,2468
6.76923,1756
6.77497,1641
6.78068,1098
6.7864,924
6.79213,699
6.79785,571
6.80357,497
6.8093,317
6.81502,360
6.82073,306
6.82647,174
6.83218,0
6.8379,236
6.84363,244
6.84935,0
6.85507,0
6.8608,0
6.86652,0
6.87223,0
6.87795,0
6.88368,155
6.8894,0
6.89512,0
6.90085,0
6.90657,0
6.91228,0
6.91802,0
6.92373,0
6.92945,0
6.93518,0
6.9409,0
6.94662,0
6.95235,0
6.95807,0
6.96378,0
6.96952,0
6.97523,0
6.98095,0
6.98668,0
6.9924,0
6.99812,0
7.00383,0
7.00957,0
7.01528,0
7.021,0
7.02673,0
7.03245,0
7.03817,0
7.0439,0
7.04962,0
7.05533,0
7.06107,0
7.06678,0
7.0725,0
7.07823,0
7.08395,0
7.08967,0
7.0954,0
7.10112,0
7.10683,0
7.11257,0
7.11828,0
7.124,0
7.12972,0
7.13545,184
7.14117,350
7.14688,0
7.15262,160
7.15833,0
7.16405,0
7.16978,0
7.1755,0
7.18122,0
7.18695,0
7.19267,0
7.19838,0
7.20412,0
7.20983,0
7.21555,0
7.22128,0
7.227,0
7.23272,0
7.23845,0
7.24417,0
7.24988,0
7.2556,0
7.26133,0
7.26705,0
7.27277,0
7.2785,0
7.28422,0
7.28993,0
7.29567,0
7.30138,0
7.3071,0
7.31283,0
7.31855,0
7.32427,0
7.33,0
7.33572,0
7.34143,0
7.34717,0
7.35288,0
7.3586,0
7.36433,0
7.37005,0
7.37577,0
7.3815,0
7.38722,0
7.39293,0
7.39865,0
7.40438,0
7.4101,0
7.41582,0
7.42155,0
7.42727,0
7.43298,162
7.43872,176
7.44443,0
7.45015,0
7.45588,0
7.4616,172
7.46732,164
7.47305,0
7.47877,0
7.48448,0
7.49022,0
7.49593,0
7.50165,0
7.50738,0
7.5131,0
7.51882,0
7.52453,0
7.53027,0
7.53598,0
7.5417,0
7.54743,0
7.55315,0
7.55887,0
7.5646,0
7.57032,0
7.57603,0
7.58177,0
7.58748,0
7.5932,0
7.59893,179
7.60465,0
7.61037,0
7.6161,0
7.62182,0
7.62753,0
7.63327,0
7.63898,0
7.6447,0
7.65042,0
7.65615,0
7.66187,0
7.66758,0
7.67332,0
7.67903,0
7.68475,0
7.69048,0
7.6962,0
7.70192,0
7.70765,0
7.71337,0
7.71908,0
7.72482,0
7.73053,0
7.73625,0
7.74198,0
7.7477,0
7.75342,0
7.75915,0
7.76487,0
7.77058,0
7.7763,0
7.78203,0
7.78775,0
7.79347,0
7.7992,0
7.80492,0
7.81063,0
7.81637,0
7.82208,0
7.8278,0
7.83353,0
7.83925,0
7.84497,0
7.8507,0
7.85642,0
7.86213,0
7.86787,0
7.87358,0
7.8793,0
7.88503,0
7.89075,0
7.89647,0
7.90218,0
7.90792,0
7.91363,0
7.91935,0
7.92508,0
7.9308,0
7.93652,0
7.94225,0
7.94797,0
7.95368,0
7.95942,0
7.96513,0
7.97085,0
7.97658,0
7.9823,0
7.98802,0
7.99375,0
7.99947,0
8.00518,0
8.01092,0
8.01663,0
8.02235,0
8.02807,0
8.0338,0
8.03952,0
8.04523,0
8.05097,0
8.05668,0
8.0624,0
8.06813,0
8.07385,0
8.07957,0
8.0853,0
8.09102,0
8.09673,0
8.10247,0
8.10818,0
8.1139,0
8.11963,0
8.12535,0
8.13107,0
8.1368,0
8.14252,0
8.14823,0
8.15395,0
8.15968,0
8.1654,0
8.17112,0
8.17685,0
8.18257,0
8.18828,0
8.19402,0
8.19973,0
8.20545,0
8.21118,0
8.2169,0
8.22262,0
8.22835,0
8.23407,0
8.23978,0
8.24552,0
8.25123,0
8.25695,0
8.26268,0
8.2684,0
8.27412,0
8.27983,199
8.28557,227
8.29128,303
8.297,270
8.30273,295
8.30845,253
8.31417,216
8.3199,236
8.32562,173
8.33133,0
8.33707,0
8.34278,0
8.3485,0
8.35423,0
8.35995,0
8.36567,0
8.3714,0
8.37712,0
8.38283,0
8.38857,0
8.39428,0
8.4,0
8.40572,0
8.41145,0
8.41717,0
8.42288,0
8.42862,0
8.43433,0
8.44005,0
8.44578,0
8.4515,173
8.45722,339
8.46295,1539
8.46867,3175
8.47438,5297
8.48012,5348
8.48583,4539
8.49155,3158
8.49728,1860
8.503,873
8.50872,423
8.51445,349
8.52017,0
8.52588,0
8.5316,0
8.53733,0
8.54305,0
8.54877,0
8.5545,0
8.56022,0
8.56593,0
8.57167,0
8.57738,0
8.5831,0
8.58883,0
8.59455,0
8.60027,0
8.606,0
8.61172,0
8.61743,0
8.62317,0
8.62888,0
8.6346,0
8.64033,0
8.64605,0
8.65177,0
8.65748,0
8.66322,0
8.66893,0
8.67465,0
8.68038,178
8.6861,0
8.69182,0
8.69755,0
8.70327,0
8.70898,0
8.71472,0
8.72043,0
8.72615,0
8.73188,0
8.7376,0
8.74332,0
8.74905,0
8.75477,0
8.76048,0
8.76622,0
8.77193,0
8.77765,0
8.78337,0
8.7891,0
8.79482,0
8.80053,0
8.80627,0
8.81198,0
8.8177,0
8.82343,0
8.82915,0
8.83487,0
8.8406,0
8.84632,0
8.85203,0
8.85777,0
8.86348,0
8.8692,0
8.87493,0
8.88065,0
8.88637,0
8.8921,0
8.89782,0
8.90353,0
8.90925,0
8.91498,0
8.9207,0
8.92642,0
8.93215,0
8.93787,0
8.94358,0
8.94932,0
8.95503,0
8.96075,0
8.96648,0
8.9722,0
8.97792,0
8.98365,0
8.98937,0
8.99508,0
9.00082,0
9.00653,0
9.01225,0
9.01798,0
9.0237,0
9.02942,0
9.03513,0
9.04087,0
9.04658,0
9.0523,0
9.05803,0
9.06375,0
9.06947,0
9.0752,0
9.08092,0
9.08663,0
9.09237,0
9.09808,0
9.1038,0
9.10953,0
9.11525,0
9.12097,0
9.1267,0
9.13242,0
9.13813,0
9.14387,0
9.14958,0
9.1553,0
9.16102,0
9.16675,0
9.17247,0
9.17818,0
9.18392,0
9.18963,0
9.19535,0
9.20108,0
9.2068,0
9.21252,0
9.21825,0
9.22397,0
9.22968,0
9.23542,0
9.24113,0
9.24685,0
9.25258,0
9.2583,0
9.26402,0
9.26975,0
9.27547,0
9.28118,0
9.2869,0
9.29263,0
9.29835,0
9.30407,0
9.3098,0
9.31552,0
9.32123,0
9.32697,0
9.33268,0
9.3384,0
9.34413,0
9.34985,0
9.35557,0
9.3613,0
9.36702,0
9.37273,0
9.37847,0
9.38418,0
9.3899,0
9.39563,0
9.40135,0
9.40707,0
9.41278,0
9.41852,0
9.42423,0
9.42995,0
9.43568,0
9.4414,0
9.44712,0
9.45285,0
9.45857,0
9.46428,0
9.47002,150
9.47573,0
9.48145,0
9.48718,0
9.4929,0
9.49862,0
9.50435,0
9.51007,0
9.51578,0
9.52152,0
9.52723,0
9.53295,0
9.53867,0
9.5444,0
9.55012,0
9.55583,0
9.56157,0
9.56728,0
9.573,0
9.57873,0
9.58445,0
9.59017,0
9.5959,0
9.60162,0
9.60733,0
9.61307,0
9.61878,0
9.6245,0
9.63023,0
9.63595,0
9.64167,0
9.6474,0
9.65312,0
9.65883,0
9.66455,0
9.67028,0
9.676,0
9.68172,0
9.68745,0
9.69317,0
9.69888,0
9.70462,0
9.71033,0
9.71605,0
9.72178,0
9.7275,0
9.73322,0
9.73895,0
9.74467,0
9.75038,0
9.75612,0
9.76183,182
9.76755,0
9.77328,0
9.779,0
9.78472,0
9.79043,0
9.79617,0
9.80188,0
9.8076,0
9.81333,0
9.81905,0
9.82477,0
9.8305,0
9.83622,0
9.84193,0
9.84767,0
9.85338,0
9.8591,0
9.86483,0
9.87055,0
9.87627,0
9.882,0
9.88772,0
9.89343,0
9.89917,0
9.90488,0
9.9106,0
9.91632,0
9.92205,0
9.92777,0
9.93348,0
9.93922,0
9.94493,0
9.95065,0
9.95638,0
9.9621,0
9.96782,0
9.97355,0
9.97927,0
9.98498,0
9.99072,194
9.99643,431
10.0022,1326
10.0079,2939
10.0136,3515
10.0193,3194
10.0251,1758
10.0308,384
10.0365,202
10.0422,158
10.0479,0
10.0537,0
10.0594,0
10.0651,0
10.0708,0
10.0765,0
10.0823,0
10.088,0
10.0937,0
10.0994,0
10.1052,0
10.1109,0
10.1166,0
10.1223,0
10.128,0
10.1338,0
10.1395,0
10.1452,0
10.1509,0
10.1567,0
10.1624,0
10.1681,0
10.1738,0
10.1795,0
10.1853,0
10.191,0
10.1967,0
10.2024,0
10.2082,0
10.2139,0
10.2196,0
10.2253,0
10.231,0
10.2368,0
10.2425,165
10.2482,0
10.2539,0
10.2597,0
10.2654,0
10.2711,0
10.2768,0
10.2825,0
10.2883,0
10.294,0
10.2997,0
10.3054,0
10.3111,0
10.3169,0
10.3226,0
10.3283,0
10.334,156
10.3398,0
10.3455,0
10.3512,0
10.3569,0
10.3626,0
10.3684,0
10.3741,0
10.3798,0
10.3855,0
10.3913,0
10.397,0
10.4027,0
10.4084,0
10.4141,0
10.4199,0
10.4256,0
10.4313,0
10.437,0
10.4428,0
10.4485,0
10.4542,0
10.4599,0
10.4656,0
10.4714,150
10.4771,0
10.4828,0
10.4885,0
10.4943,0
10.5,0
10.5057,0
10.5114,0
10.5171,0
10.5229,0
10.5286,0
10.5343,0
10.54,0
10.5457,0
10.5515,0
10.5572,0
10.5629,0
10.5686,0
10.5744,0
10.5801,0
10.5858,0
10.5915,0
10.5972,0
10.603,0
10.6087,0
10.6144,0
10.6201,0
10.6259,0
10.6316,0
10.6373,0
10.643,0
10.6487,0
10.6545,0
10.6602,0
10.6659,0
10.6716,0
10.6774,0
10.6831,0
10.6888,0
10.6945,155
10.7002,0
10.706,0
10.7117,0
10.7174,0
10.7231,0
10.7289,0
10.7346,0
10.7403,0
10.746,0
10.7517,0
10.7575,0
10.7632,0
10.7689,0
10.7746,155
10.7804,0
10.7861,0
10.7918,0
10.7975,0
10.8032,0
10.809,0
10.8147,175
10.8204,0
10.8261,0
10.8318,0
10.8376,0
10.8433,0
10.849,0
10.8547,186
10.8605,0
10.8662,0
10.8719,0
10.8776,0
10.8833,0
10.8891,0
10.8948,0
10.9005,0
10.9062,0
10.912,0
10.9177,0
10.9234,0
10.9291,0
10.9348,0
10.9406,153
10.9463,0
10.952,0
10.9577,0
10.9635,0
10.9692,158
10.9749,0
10.9806,0
10.9863,0
10.9921,0
10.9978,0
11.0035,0
11.0092,0
11.015,0
11.0207,177
11.0264,167
11.0321,0
11.0378,159
11.0436,0
11.0493,0
11.055,0
11.0607,0
11.0664,0
11.0722,0
11.0779,0
11.0836,0
11.0893,0
11.0951,165
11.1008,0
11.1065,0
11.1122,0
11.1179,0
11.1237,0
11.1294,0
11.1351,0
11.1408,0
11.1466,0
11.1523,0
11.158,0
11.1637,0
11.1694,0
11.1752,0
11.1809,0
11.1866,0
11.1923,0
11.1981,0
11.2038,0
11.2095,0
11.2152,0
11.2209,0
11.2267,0
11.2324,150
11.2381,0
11.2438,151
11.2496,0
11.2553,0
11.261,177
11.2667,0
11.2724,0
11.2782,0
11.2839,0
11.2896,0
11.2953,166
11.3011,0
11.3068,0
11.3125,0
11.3182,0
11.3239,0
11.3297,0
11.3354,186
11.3411,0
11.3468,0
11.3525,0
11.3583,0
11.364,0
11.3697,0
11.3754,150
11.3812,173
11.3869,246
11.3926,1156
11.3983,1493
11.404,1870
11.4098,1732
11.4155,1056
11.4212,413
11.4269,0
11.4327,0
11.4384,0
11.4441,0
11.4498,0
11.4555,0
11.4613,0
11.467,0
11.4727,0
11.4784,0
11.4842,0
11.4899,0
11.4956,0
11.5013,0
11.507,0
11.5128,150
11.5185,0
11.5242,0
11.5299,0
11.5357,0
11.5414,190
11.5471,0
11.5528,0
11.5585,0
11.5643,0
11.57,0
11.5757,0
11.5814,0
11.5871,165
11.5929,153
11.5986,0
11.6043,0
11.61,0
11.6158,187
11.6215,150
11.6272,0
11.6329,169
11.6386,171
11.6444,0
11.6501,0
11.6558,0
11.6615,197
11.6673,0
11.673,0
11.6787,0
11.6844,0
11.6901,0
11.6959,167
11.7016,181
11.7073,157
11.713,0
11.7188,0
11.7245,0
11.7302,0
11.7359,207
11.7416,0
11.7474,0
11.7531,0
11.7588,0
11.7645,0
11.7703,0
11.776,0
11.7817,203
11.7874,0
11.7931,163
11.7989,0
11.8046,172
11.8103,0
11.816,0
11.8217,0
11.8275,0
11.8332,0
11.8389,0
11.8446,162
11.8504,0
11.8561,168
11.8618,200
11.8675,0
11.8732,0
11.879,0
11.8847,0
11.8904,194
11.8961,222
11.9019,212
11.9076,170
11.9133,0
11.919,0
11.9247,0
11.9305,0
11.9362,0
11.9419,182
11.9476,169
11.9534,0
11.9591,166
11.9648,151
11.9705,183
11.9762,0
11.982,187
11.9877,0
11.9934,0
11.9991,0
12.0049,0
12.0106,192
12.0163,174
12.022,0
12.0277,0
12.0335,0
12.0392,0
12.0449,0
12.0506,166
12.0564,0
12.0621,160
12.0678,202
12.0735,162
12.0792,0
12.085,0
12.0907,203
12.0964,189
12.1021,176
12.1078,193
12.1136,202
12.1193,0
12.125,0
12.1307,207
12.1365,0
12.1422,171
12.1479,0
12.1536,235
12.1593,198
12.1651,0
12.1708,0
12.1765,177
12.1822,155
12.188,178
12.1937,0
12.1994,150
12.2051,0
12.2108,161
12.2166,0
12.2223,214
12.228,0
12.2337,166
12.2395,188
12.2452,230
12.2509,0
12.2566,0
12.2623,0
12.2681,0
12.2738,221
12.2795,171
12.2852,212
12.291,208
12.2967,197
12.3024,234
12.3081,153
12.3138,168
12.3196,223
12.3253,196
12.331,166
12.3367,174
12.3424,186
12.3482,0
12.3539,223
12.3596,0
12.3653,198
12.3711,224
12.3768,189
12.3825,171
12.3882,152
12.3939,0
12.3997,166
12.4054,0
12.4111,156
12.4168,0
12.4226,243
12.4283,172
12.434,0
12.4397,0
12.4454,184
12.4512,182
12.4569,228
12.4626,212
12.4683,183
12.4741,196
12.4798,177
12.4855,181
12.4912,199
12.4969,195
12.5027,0
12.5084,0
12.5141,256
12.5198,217
12.5256,0
12.5313,199
12.537,0
12.5427,0
12.5484,186
12.5542,245
12.5599,287
12.5656,276
12.5713,0
12.577,0
12.5828,177
12.5885,461
12.5942,153
12.5999,271
12.6057,196
12.6114,169
12.6171,242
12.6228,182
12.6285,186
12.6343,204
12.64,242
12.6457,177
12.6514,214
12.6572,390
12.6629,0
12.6686,801
12.6743,1309
12.68,2057
12.6858,1913
12.6915,1533
12.6972,795
12.7029,578
12.7087,190
12.7144,157
12.7201,172
12.7258,217
12.7315,228
12.7373,245
12.743,157
12.7487,315
12.7544,245
12.7602,176
12.7659,172
12.7716,162
12.7773,166
12.783,201
12.7888,286
12.7945,225
12.8002,270
12.8059,188
12.8117,219
12.8174,405
12.8231,206
12.8288,483
12.8345,252
12.8403,377
12.846,246
12.8517,203
12.8574,211
12.8631,223
12.8689,204
12.8746,222
12.8803,205
12.886,225
12.8918,171
12.8975,235
12.9032,368
12.9089,169
12.9146,307
12.9204,286
12.9261,193
12.9318,251
12.9375,325
12.9433,231
12.949,301
12.9547,201
12.9604,290
12.9661,195
12.9719,263
12.9776,202
12.9833,309
12.989,282
12.9948,442
13.0005,232
13.0062,273
13.0119,275
13.0176,233
13.0234,369
13.0291,184
13.0348,175
13.0405,199
13.0463,283
13.052,283
13.0577,415
13.0634,238
13.0691,275
13.0749,232
13.0806,179
13.0863,225
13.092,300
13.0977,221
13.1035,198
13.1092,233
13.1149,224
13.1206,331
13.1264,181
13.1321,435
13.1378,218
13.1435,249
13.1492,408
13.155,200
13.1607,439
13.1664,258
13.1721,323
13.1779,292
13.1836,262
13.1893,186
13.195,232
13.2007,417
13.2065,265
13.2122,314
13.2179,240
13.2236,309
13.2294,231
13.2351,259
13.2408,301
13.2465,192
13.2522,332
13.258,290
13.2637,273
13.2694,300
13.2751,269
13.2809,495
13.2866,304
13.2923,195
13.298,228
13.3037,239
13.3095,456
13.3152,413
13.3209,285
13.3266,479
13.3323,553
13.3381,157
13.3438,373
13.3495,463
13.3552,293
13.361,279
13.3667,294
13.3724,336
13.3781,181
13.3838,549
13.3896,404
13.3953,270
13.401,280
13.4067,535
13.4125,564
13.4182,244
13.4239,326
13.4296,255
13.4353,320
13.4411,528
13.4468,476
13.4525,283
13.4582,346
13.464,548
13.4697,510
13.4754,194
13.4811,300
13.4868,268
13.4926,548
13.4983,460
13.504,256
13.5097,370
13.5155,621
13.5212,508
13.5269,374
13.5326,361
13.5383,507
13.5441,392
13.5498,523
13.5555,439
13.5612,374
13.567,339
13.5727,424
13.5784,429
13.5841,440
13.5898,321
13.5956,474
13.6013,527
13.607,726
13.6127,372
13.6184,499
13.6242,564
13.6299,574
13.6356,538
13.6413,511
13.6471,471
13.6528,525
13.6585,291
13.6642,652
13.6699,551
13.6757,503
13.6814,330
13.6871,455
13.6928,368
13.6986,564
13.7043,490
13.71,617
13.7157,510
13.7214,595
13.7272,490
13.7329,542
13.7386,411
13.7443,508
13.7501,710
13.7558,291
13.7615,521
13.7672,533
13.7729,247
13.7787,525
13.7844,265
13.7901,546
13.7958,375
13.8016,567
13.8073,637
13.813,278
13.8187,645
13.8244,611
13.8302,978
13.8359,1361
13.8416,1569
13.8473,1767
13.853,1924
13.8588,938
13.8645,917
13.8702,775
13.8759,616
13.8817,533
13.8874,618
13.8931,551
13.8988,620
13.9045,637
13.9103,543
13.916,326
13.9217,612
13.9274,630
13.9332,705
13.9389,552
13.9446,786
13.9503,617
13.956,693
13.9618,469
13.9675,762
13.9732,554
13.9789,541
13.9847,678
13.9904,600
13.9961,454
14.0018,689
14.0075,603
14.0133,662
14.019,571
14.0247,743
14.0304,621
14.0362,615
14.0419,603
14.0476,734
14.0533,664
14.059,448
14.0648,692
14.0705,782
14.0762,580
14.0819,664
14.0876,610
14.0934,711
14.0991,652
14.1048,445
14.1105,700
14.1163,697
14.122,597
14.1277,702
14.1334,632
14.1391,680
14.1449,551
14.1506,657
14.1563,888
14.162,658
14.1678,561
14.1735,1009
14.1792,828
14.1849,786
14.1906,712
14.1964,883
14.2021,686
14.2078,798
14.2135,1629
14.2193,3420
14.225,6212
14.2307,8043
14.2364,6383
14.2421,3758
14.2479,1815
14.2536,1232
14.2593,857
14.265,710
14.2708,747
14.2765,744
14.2822,719
14.2879,708
14.2936,686
14.2994,857
14.3051,995
14.3108,653
14.3165,708
14.3223,627
14.328,868
14.3337,908
14.3394,811
14.3451,769
14.3509,691
14.3566,837
14.3623,709
14.368,681
14.3737,652
14.3795,761
14.3852,581
14.3909,855
14.3966,756
14.4024,735
14.4081,952
14.4138,834
14.4195,808
14.4252,858
14.431,807
14.4367,740
14.4424,793
14.4481,679
14.4539,895
14.4596,781
14.4653,991
14.471,912
14.4767,856
14.4825,812
14.4882,890
14.4939,765
14.4996,810
14.5054,975
14.5111,883
14.5168,808
14.5225,721
14.5282,798
14.534,855
14.5397,934
14.5454,815
14.5511,785
14.5569,1058
14.5626,1048
14.5683,1089
14.574,743
14.5797,1163
14.5855,1164
14.5912,1154
14.5969,1035
14.6026,1013
14.6083,836
14.6141,928
14.6198,1041
14.6255,783
14.6312,795
14.637,793
14.6427,1170
14.6484,890
14.6541,776
14.6598,953
14.6656,933
14.6713,1066
14.677,890
14.6827,875
14.6885,1137
14.6942,888
14.6999,983
14.7056,1297
14.7113,1205
14.7171,1072
14.7228,975
14.7285,819
14.7342,1096
14.74,1377
14.7457,1023
14.7514,1176
14.7571,1144
14.7628,1225
14.7686,1133
14.7743,984
14.78,1117
14.7857,1164
14.7915,1126
14.7972,1048
14.8029,793
14.8086,1287
14.8143,1018
14.8201,1263
14.8258,1625
14.8315,893
14.8372,913
14.843,1288
14.8487,917
14.8544,1031
14.8601,1403
14.8658,1365
14.8716,1404
14.8773,1293
14.883,1082
14.8887,1156
14.8944,1570
14.9002,1380
14.9059,1841
14.9116,2243
14.9173,2631
14.9231,2059
14.9288,1498
14.9345,1333
14.9402,1412
14.9459,1049
14.9517,1131
14.9574,1346
14.9631,1258
14.9688,1349
14.9746,1447
14.9803,1466
14.986,1164
14.9917,1470
14.9974,1255
15.0032,1245
15.0089,1244
15.0146,1184
15.0203,1432
15.0261,1072
15.0318,1323
15.0375,1054
15.0432,1640
15.0489,1262
15.0547,1456
15.0604,1520
15.0661,1444
15.0718,1507
15.0776,1595
15.0833,1522
15.089,1698
15.0947,1698
15.1004,1790
15.1062,1562
15.1119,1455
15.1176,1427
15.1233,1330
15.129,1365
15.1348,1622
15.1405,1524
15.1462,1257
15.1519,1420
15.1577,1435
15.1634,1694
15.1691,1951
15.1748,1469
15.1805,1897
15.1863,1495
15.192,1369
15.1977,1688
15.2034,1451
15.2092,1577
15.2149,1466
15.2206,1432
15.2263,1571
15.232,1540
15.2378,1739
15.2435,1523
15.2492,2039
15.2549,1493
15.2607,1533
15.2664,1772
15.2721,2086
15.2778,1971
15.2835,1940
15.2893,1664
15.295,1935
15.3007,1534
15.3064,1850
15.3122,1627
15.3179,1831
15.3236,1684
15.3293,1724
15.335,1853
15.3408,1800
15.3465,1938
15.3522,2089
15.3579,1813
15.3636,1847
15.3694,1782
15.3751,1642
15.3808,2181
15.3865,2000
15.3923,1653
15.398,1993
15.4037,2078
15.4094,1969
15.4151,1718
15.4209,1761
15.4266,1850
15.4323,2037
15.438,2325
15.4438,1908
15.4495,1927
15.4552,2165
15.4609,2528
15.4666,2060
15.4724,1570
15.4781,1921
15.4838,2542
15.4895,2382
15.4953,1718
15.501,2094
15.5067,2038
15.5124,1941
15.5181,1409
15.5239,1737
15.5296,1980
15.5353,2092
15.541,2167
15.5468,2313
15.5525,2110
15.5582,2094
15.5639,2601
15.5696,2585
15.5754,2436
15.5811,2117
15.5868,1905
15.5925,1863
15.5983,2184
15.604,2609
15.6097,2530
15.6154,2519
15.6211,2355
15.6269,2749
15.6326,2187
15.6383,2441
15.644,2541
15.6497,2409
15.6555,2267
15.6612,2477
15.6669,2437
15.6726,2124
15.6784,2190
15.6841,2485
15.6898,2493
15.6955,2446
15.7012,2901
15.707,2749
15.7127,2532
15.7184,2400
15.7241,2971
15.7299,2774
15.7356,2955
15.7413,2963
15.747,2802
15.7527,2597
15.7585,2663
15.7642,2650
15.7699,2681
15.7756,2500
15.7814,2953
15.7871,2884
15.7928,2695
15.7985,2440
15.8042,2901
15.81,2677
15.8157,2879
15.8214,3193
15.8271,2682
15.8329,2980
15.8386,2761
15.8443,3095
15.85,3484
15.8557,3270
15.8615,3087
15.8672,3029
15.8729,3049
15.8786,2732
15.8843,2988
15.8901,2928
15.8958,3133
15.9015,2417
15.9072,3668
15.913,3537
15.9187,3244
15.9244,3608
15.9301,3340
15.9358,3455
15.9416,3459
15.9473,3022
15.953,3249
15.9587,2957
15.9645,3051
15.9702,3283
15.9759,3599
15.9816,3089
15.9873,3214
15.9931,3161
15.9988,3117
16.0045,3436
16.0102,3208
16.016,3222
16.0217,3399
16.0274,3114
16.0331,3659
16.0388,3382
16.0446,3814
16.0503,3773
16.056,3576
16.0617,3345
16.0675,3385
16.0732,3402
16.0789,3098
16.0846,3288
16.0903,3739
16.0961,3763
16.1018,3856
16.1075,3607
16.1132,4004
16.1189,3789
16.1247,3835
16.1304,4171
16.1361,3245
16.1418,4119
16.1475,3883
16.1533,3769
16.159,3813
16.1647,3972
16.1704,4017
16.1762,4203
16.1819,3923
16.1876,3721
16.1933,3794
16.1991,3434
16.2048,3671
16.2105,4326
16.2162,4088
16.2219,3749
16.2277,3997
16.2334,3914
16.2391,3802
16.2448,4080
16.2506,3804
16.2563,4334
16.262,4334
16.2677,4552
16.2734,4004
16.2792,4138
16.2849,3539
16.2906,3755
16.2963,4613
16.3021,4795
16.3078,4680
16.3135,3967
16.3192,4054
16.3249,3872
16.3306,4307
16.3364,4052
16.3421,4769
16.3478,4260
16.3535,4317
16.3593,4475
16.365,4194
16.3707,4378
16.3764,4338
16.3821,4653
16.3879,4533
16.3936,4314
16.3993,5047
16.405,4169
16.4108,4465
16.4165,4813
16.4222,4733
16.4279,4244
16.4337,5077
16.4394,4718
16.4451,3929
16.4508,4697
16.4565,5195
16.4623,4528
16.468,4319
16.4737,4514
16.4794,5301
16.4852,5318
16.4909,5130
16.4966,4462
16.5023,4738
16.508,4555
16.5138,5153
16.5195,5137
16.5252,5052
16.5309,4990
16.5367,5036
16.5424,5691
16.5481,4985
16.5538,4987
16.5595,5080
16.5652,5159
16.571,5395
16.5767,5297
16.5824,5784
16.5881,4706
16.5939,5097
16.5996,5028
16.6053,5145
16.611,5356
16.6168,5241
16.6225,4992
16.6282,5152
16.6339,5023
16.6396,5653
16.6454,5345
16.6511,4963
16.6568,5654
16.6625,5836
16.6683,5438
16.674,5042
16.6797,5262
16.6854,5632
16.6911,6018
16.6969,5335
16.7026,5671
16.7083,5862
16.714,5043
16.7198,5325
16.7255,6081
16.7312,5599
16.7369,5851
16.7426,5299
16.7483,5891
16.7541,5371
16.7598,6342
16.7655,5921
16.7712,5655
16.777,6129
16.7827,5654
16.7884,5817
16.7941,5510
16.7998,5634
16.8056,6333
16.8113,6200
16.817,6182
16.8227,5969
16.8285,6519
16.8342,6377
16.8399,6400
16.8456,6161
16.8514,6143
16.8571,6711
16.8628,6675
16.8685,6232
16.8742,6354
16.88,6521
16.8857,6550
16.8914,6565
16.8971,6462
16.9029,7060
16.9086,6391
16.9143,6172
16.92,6211
16.9257,6636
16.9315,6770
16.9372,6659
16.9429,6392
16.9486,6531
16.9544,7030
16.9601,6901
16.9658,6427
16.9715,6887
16.9772,6952
16.983,6859
16.9887,7045
16.9944,6911
17.0001,6622
17.0058,7350
17.0116,6932
17.0173,7554
17.023,7698
17.0287,7234
17.0345,7304
17.0402,6940
17.0459,7999
17.0516,7458
17.0574,7545
17.0631,7841
17.0688,7208
17.0745,7104
17.0802,6788
17.086,7391
17.0917,7628
17.0974,7368
17.1031,7266
17.1089,7362
17.1146,7528
17.1203,7671
17.126,7176
17.1317,7309
17.1375,8047
17.1432,7501
17.1489,7142
17.1546,7772
17.1603,7991
17.1661,7729
17.1718,7604
17.1775,7827
17.1832,7645
17.1889,7629
17.1947,7914
17.2004,8304
17.2061,8034
17.2118,8154
17.2176,8434
17.2233,8423
17.229,8288
17.2347,8550
17.2404,8346
17.2462,8580
17.2519,8714
17.2576,8149
17.2633,8571
17.2691,8493
17.2748,8464
17.2805,8870
17.2862,8331
17.292,8157
17.2977,8810
17.3034,7982
17.3091,8580
17.3148,8570
17.3206,8595
17.3263,8707
17.332,8746
17.3377,9143
17.3435,8728
17.3492,8608
17.3549,8680
17.3606,9281
17.3663,8861
17.3721,8964
17.3778,8706
17.3835,9104
17.3892,8943
17.3949,8724
17.4007,8409
17.4064,8784
17.4121,8841
17.4178,9922
17.4235,8846
17.4293,10121
17.435,8759
17.4407,10117
17.4464,10219
17.4522,10001
17.4579,8917
17.4636,9251
17.4693,9469
17.4751,9589
17.4808,9673
17.4865,9130
17.4922,9576
17.4979,9005
17.5037,9174
17.5094,9960
17.5151,10355
17.5208,13343
17.5266,15436
17.5323,18239
17.538,18560
17.5437,16629
17.5494,12956
17.5552,10760
17.5609,10482
17.5666,10997
17.5723,10090
17.5781,10612
17.5838,9861
17.5895,10232
17.5952,10527
17.6009,10684
17.6067,10473
17.6124,10781
17.6181,10198
17.6238,9993
17.6295,10450
17.6353,10311
17.641,10465
17.6467,10562
17.6524,10714
17.6581,10776
17.6639,10402
17.6696,10904
17.6753,10654
17.681,10807
17.6868,10911
17.6925,10658
17.6982,11392
17.7039,11259
17.7097,11154
17.7154,10774
17.7211,10502
17.7268,11370
17.7325,10966
17.7383,10830
17.744,11045
17.7497,11120
17.7554,11637
17.7612,11207
17.7669,11463
17.7726,12307
17.7783,11189
17.784,11100
17.7898,11437
17.7955,11711
17.8012,11753
17.8069,11445
17.8127,11219
17.8184,11679
17.8241,11485
17.8298,11367
17.8355,12722
17.8413,11432
17.847,13066
17.8527,12657
17.8584,12725
17.8642,13079
17.8699,12259
17.8756,12345
17.8813,12481
17.887,12353
17.8927,12218
17.8985,13501
17.9042,11576
17.9099,12195
17.9156,13511
17.9214,12932
17.9271,13303
17.9328,13020
17.9385,12599
17.9443,12735
17.95,11895
17.9557,12867
17.9614,12832
17.9671,12871
17.9729,12953
17.9786,13080
17.9843,13666
17.99,12478
17.9958,12911
18.0015,12528
18.0072,12746
18.0129,13333
18.0186,13337
18.0244,13150
18.0301,14240
18.0358,14368
18.0415,12970
18.0473,13532
18.053,13776
18.0587,13992
18.0644,13948
18.0701,12764
18.0759,13733
18.0816,14751
18.0873,13861
18.093,14423
18.0988,12648
18.1045,13196
18.1102,13300
18.1159,13326
18.1216,14152
18.1274,13865
18.1331,14138
18.1388,13862
18.1445,13496
18.1502,14361
18.156,14465
18.1617,14240
18.1674,13621
18.1731,15065
18.1789,13883
18.1846,13898
18.1903,13645
18.196,15569
18.2017,14794
18.2075,14231
18.2132,14883
18.2189,14305
18.2246,15607
18.2304,14775
18.2361,14771
18.2418,14303
18.2475,13588
18.2532,14324
18.259,14907
18.2647,14427
18.2704,15825
18.2761,14828
18.2819,15682
18.2876,15184
18.2933,15987
18.299,15331
18.3047,15926
18.3104,15664
18.3162,14737
18.3219,15088
18.3276,14396
18.3333,14999
18.3391,16443
18.3448,15599
18.3505,15146
18.3562,14798
18.362,15337
18.3677,15429
18.3734,15228
18.3791,15744
18.3849,15358
18.3906,15043
18.3963,15704
18.402,15231
18.4077,16227
18.4135,16491
18.4192,15945
18.4249,14807
18.4306,16570
18.4363,15735
18.4421,17260
18.4478,16549
18.4535,16983
18.4592,16706
18.465,15687
18.4707,15852
18.4764,15762
18.4821,15947
18.4878,14886
18.4936,16440
18.4993,15525
18.505,16645
18.5107,16444
18.5165,16761
18.5222,16611
18.5279,16170
18.5336,16147
18.5393,16755
18.5451,16637
18.5508,16082
18.5565,16706
18.5622,18404
18.568,16447
18.5737,16185
18.5794,16949
18.5851,17133
18.5908,17810
18.5966,17746
18.6023,17033
18.608,16981
18.6137,17444
18.6195,17092
18.6252,18681
18.6309,17512
18.6366,17237
18.6423,17567
18.6481,17956
18.6538,16881
18.6595,17256
18.6652,18333
18.6709,18345
18.6767,18244
18.6824,18171
18.6881,17275
18.6938,18050
18.6996,16968
18.7053,17970
18.711,17457
18.7167,17803
18.7224,17950
18.7282,17684
18.7339,17654
18.7396,17826
18.7453,17861
18.751,17369
18.7568,17900
18.7625,18427
18.7682,17937
18.7739,18665
18.7797,18174
18.7854,17959
18.7911,18041
18.7968,18190
18.8026,18342
18.8083,18140
18.814,18633
18.8197,17629
18.8254,18007
18.8312,17593
18.8369,17900
18.8426,19090
18.8483,17822
18.8541,18472
18.8598,18660
18.8655,17383
18.8712,19422
18.8769,18378
18.8827,19089
18.8884,19314
18.8941,18838
18.8998,18933
18.9055,18872
18.9113,19398
18.917,19680
18.9227,19011
18.9284,19436
18.9342,18989
18.9399,19063
18.9456,19437
18.9513,20272
18.957,19772
18.9628,18587
18.9685,19339
18.9742,19025
18.9799,19475
18.9857,19808
18.9914,20218
18.9971,19504
19.0028,19112
19.0085,20159
19.0143,20230
19.02,19945
19.0257,19592
19.0314,19901
19.0372,20152
19.0429,19965
19.0486,20862
19.0543,20310
19.06,19477
19.0658,20464
19.0715,20330
19.0772,19636
19.0829,19505
19.0887,20208
19.0944,19590
19.1001,20004
19.1058,18783
19.1115,20759
19.1173,19923
19.123,20266
19.1287,19567
19.1344,19936
19.1402,19599
19.1459,19957
19.1516,20092
19.1573,19503
19.163,19807
19.1687,20064
19.1745,19938
19.1802,19971
19.1859,21177
19.1916,20797
19.1974,20210
19.2031,21922
19.2088,20761
19.2145,19956
19.2203,20142
19.226,21037
19.2317,20421
19.2374,19773
19.2431,20416
19.2489,20045
19.2546,20575
19.2603,18887
19.266,20962
19.2718,19167
19.2775,19596
19.2832,19725
19.2889,20478
19.2946,21082
19.3004,21478
19.3061,21146
19.3118,20254
19.3175,20874
19.3233,19931
19.329,19873
19.3347,20675
19.3404,20123
19.3461,21461
19.3519,20530
19.3576,20442
19.3633,19632
19.369,20784
19.3748,19871
19.3805,20364
19.3862,20978
19.3919,20115
19.3976,20729
19.4034,21333
19.4091,21252
19.4148,20608
19.4205,20694
19.4262,20806
19.432,20619
19.4377,20849
19.4434,20108
19.4491,21104
19.4549,19660
19.4606,19624
19.4663,20977
19.472,20500
19.4777,19737
19.4835,20055
19.4892,20811
19.4949,20117
19.5006,20550
19.5064,20188
19.5121,20701
19.5178,20885
19.5235,21984
19.5292,21911
19.535,20307
19.5407,21736
19.5464,20492
19.5521,19480
19.5579,19804
19.5636,21158
19.5693,19802
19.575,20203
19.5807,20379
19.5864,20272
19.5922,20948
19.5979,21136
19.6036,21159
19.6093,21089
19.6151,19161
19.6208,21240
19.6265,20143
19.6322,20995
19.638,20198
19.6437,20223
19.6494,21076
19.6551,21011
19.6608,21308
19.6666,19937
19.6723,20654
19.678,21115
19.6837,20931
19.6895,20372
19.6952,20312
19.7009,20812
19.7066,20208
19.7123,20955
19.7181,21358
19.7238,21020
19.7295,21137
19.7352,20536
19.741,20814
19.7467,20225
19.7524,20903
19.7581,20757
19.7638,21209
19.7696,20291
19.7753,21645
19.781,20239
19.7867,20931
19.7925,20370
19.7982,20655
19.8039,20322
19.8096,19911
19.8153,19661
19.8211,20662
19.8268,20065
19.8325,19479
19.8382,20741
19.844,21388
19.8497,21715
19.8554,19905
19.8611,19474
19.8668,20679
19.8726,20207
19.8783,21395
19.884,20458
19.8897,20915
19.8955,20401
19.9012,21212
19.9069,20638
19.9126,19928
19.9183,21540
19.9241,20998
19.9298,20069
19.9355,21166
19.9412,20902
19.9469,20210
19.9527,20753
19.9584,21815
19.9641,20036
19.9698,20798
19.9756,20554
19.9813,20418
19.987,20580
19.9927,21026
19.9984,21463
20.0042,19772
20.0099,21269
20.0156,19965
20.0213,20928
20.0271,20199
20.0328,20377
20.0385,20201
20.0442,20567
20.0499,20438
20.0557,21948
20.0614,21129
20.0671,20827
20.0728,18971
20.0786,20477
20.0843,21809
20.09,20277
20.0957,21426
20.1014,20907
20.1072,20026
20.1129,20699
20.1186,19909
20.1243,20404
20.1301,21589
20.1358,21071
20.1415,20794
20.1472,20782
20.1529,20577
20.1587,19792
20.1644,20809
20.1701,20279
20.1758,19683
20.1815,20315
20.1873,22220
20.193,21665
20.1987,20654
20.2044,20916
20.2102,19628
20.2159,20424
20.2216,20732
20.2273,20689
20.233,19372
20.2388,20497
20.2445,20206
20.2502,20450
20.2559,20705
20.2616,21325
20.2674,19698
20.2731,21336
20.2788,20058
20.2845,19928
20.2903,20268
20.296,20700
20.3017,19939
20.3074,20314
20.3132,20558
20.3189,21043
20.3246,20586
20.3303,21199
20.336,20928
20.3418,21257
20.3475,20026
20.3532,19937
20.3589,21198
20.3647,20952
20.3704,20741
20.3761,19765
20.3818,20377
20.3875,20617
20.3933,19848
20.399,21418
20.4047,19782
20.4104,21575
20.4161,20591
20.4219,19996
20.4276,19637
20.4333,20977
20.439,19979
20.4448,21190
20.4505,20508
20.4562,20307
20.4619,19655
20.4676,20802
20.4734,21317
20.4791,20152
20.4848,20700
20.4905,21122
20.4963,20560
20.502,20406
20.5077,21381
20.5134,20904
20.5191,21011
20.5249,21017
20.5306,20588
20.5363,19557
20.542,20413
20.5478,21086
20.5535,19627
20.5592,21696
20.5649,20895
20.5706,19871
20.5764,21336
20.5821,20873
20.5878,20215
20.5935,21761
20.5993,21579
20.605,19983
20.6107,21293
20.6164,20509
20.6221,20792
20.6279,21280
20.6336,19925
20.6393,20121
20.645,20737
20.6508,19555
20.6565,20653
20.6622,21085
20.6679,20974
20.6736,20945
20.6793,21567
20.6851,20403
20.6908,20043
20.6965,21693
20.7022,20302
20.708,20457
20.7137,19507
20.7194,20889
20.7251,21490
20.7309,21877
20.7366,22250
20.7423,20320
20.748,21319
20.7537,21391
20.7595,20237
20.7652,21152
20.7709,21136
20.7766,20014
20.7824,21432
20.7881,20011
20.7938,21011
20.7995,20188
20.8052,20153
20.811,21394
20.8167,21479
20.8224,20039
20.8281,20477
20.8339,21227
20.8396,19376
20.8453,21209
20.851,20463
20.8567,19584
20.8625,22384
20.8682,21313
20.8739,20977
20.8796,20547
20.8854,20045
20.8911,21110
20.8968,20064
20.9025,19744
20.9082,20146
20.914,20143
20.9197,21386
20.9254,20391
20.9311,21111
20.9368,19227
20.9426,20250
20.9483,21766
20.954,19687
20.9597,20742
20.9655,20734
20.9712,20851
20.9769,20458
20.9826,20270
20.9883,20828
20.9941,20141
20.9998,21483
21.0055,21362
21.0112,19915
21.017,19767
21.0227,20400
21.0284,20041
21.0341,21625
21.0398,20501
21.0456,20061
21.0513,20557
21.057,20881
21.0627,21720
21.0685,19523
21.0742,20374
21.0799,20705
21.0856,20813
21.0913,20679
21.097,21729
21.1028,20293
21.1085,20525
21.1142,19941
21.1199,21261
21.1257,20682
21.1314,20177
21.1371,19909
21.1428,20733
21.1486,20274
21.1543,20432
21.16,20463
21.1657,21589
21.1714,20665
21.1772,21297
21.1829,20413
21.1886,20289
21.1943,20687
21.2001,20934
21.2058,20429
21.2115,20787
21.2172,20846
21.2229,21036
21.2287,19372
21.2344,20567
21.2401,20435
21.2458,20477
21.2516,20333
21.2573,20529
21.263,20628
21.2687,19915
21.2744,20642
21.2802,21265
21.2859,20533
21.2916,21232
21.2973,20291
21.3031,21152
21.3088,21119
21.3145,19803
21.3202,20928
21.3259,21058
21.3317,20563
21.3374,20434
21.3431,20642
21.3488,21060
21.3546,20517
21.3603,20969
21.366,20397
21.3717,20102
21.3774,20563
21.3832,21019
21.3889,20545
21.3946,20016
21.4003,20926
21.4061,21695
21.4118,20603
21.4175,19993
21.4232,21093
21.4289,20980
21.4347,20939
21.4404,21048
21.4461,21212
21.4518,20698
21.4575,21209
21.4633,20674
21.469,20772
21.4747,20584
21.4804,19984
21.4862,21268
21.4919,20873
21.4976,20272
21.5033,20513
21.509,19907
21.5148,19983
21.5205,20546
21.5262,19646
21.5319,20416
21.5376,20970
21.5434,21071
21.5491,20382
21.5548,21119
21.5605,20921
21.5663,20172
21.572,20781
21.5777,20855
21.5834,20783
21.5892,22145
21.5949,19848
21.6006,19820
21.6063,20839
21.612,22026
21.6178,20547
21.6235,20705
21.6292,20903
21.6349,21184
21.6407,20549
21.6464,20001
21.6521,21567
21.6578,20902
21.6635,21016
21.6693,20402
21.675,21453
21.6807,20827
21.6864,21111
21.6921,21965
21.6979,20408
21.7036,20884
21.7093,20415
21.715,21359
21.7208,20969
21.7265,21216
21.7322,20788
21.7379,20913
21.7436,20852
21.7494,20752
21.7551,21128
21.7608,19627
21.7665,20403
21.7723,21622
21.778,20584
21.7837,20967
21.7894,20311
21.7951,21182
21.8009,20090
21.8066,21132
21.8123,20459
21.818,20431
21.8238,21042
21.8295,20578
21.8352,20225
21.8409,20374
21.8466,20861
21.8524,21268
21.8581,21024
21.8638,21949
21.8695,20230
21.8753,21116
21.881,20228
21.8867,20067
21.8924,20994
21.8981,20659
21.9039,20971
21.9096,21303
21.9153,20655
21.921,21006
21.9268,20597
21.9325,20284
21.9382,20823
21.9439,21826
21.9496,21337
21.9554,20579
21.9611,20485
21.9668,20118
21.9725,20312
21.9782,21578
21.984,21184
21.9897,20874
21.9954,21517
22.0011,20627
22.0069,21120
22.0126,20494
22.0183,20375
22.024,20042
22.0297,19786
22.0355,20857
22.0412,20987
22.0469,21300
22.0526,20599
22.0584,20046
22.0641,20085
22.0698,21520
22.0755,21723
22.0812,21321
22.087,21266
22.0927,21936
22.0984,21255
22.1041,20257
22.1099,21326
22.1156,20682
22.1213,19544
22.127,20315
22.1327,20648
22.1385,20769
22.1442,21262
22.1499,19880
22.1556,20266
22.1614,19971
22.1671,20890
22.1728,20376
22.1785,21561
22.1842,20958
22.19,20111
22.1957,21470
22.2014,20943
22.2071,21586
22.2128,20315
22.2186,21140
22.2243,20541
22.23,21301
22.2357,19929
22.2415,19989
22.2472,21094
22.2529,21586
22.2586,21460
22.2643,21076
22.2701,20506
22.2758,19399
22.2815,20465
22.2872,20652
22.293,20787
22.2987,20865
22.3044,21554
22.3101,20373
22.3158,21305
22.3216,20446
22.3273,21307
22.333,20815
22.3387,20524
22.3445,19911
22.3502,21524
22.3559,20436
22.3616,20911
22.3673,21407
22.3731,20985
22.3788,21412
22.3845,22283
22.3902,21184
22.396,21754
22.4017,20280
22.4074,20469
22.4131,20359
22.4188,20377
22.4246,21274
22.4303,21132
22.436,20828
22.4417,21584
22.4474,20610
22.4532,21126
22.4589,21000
22.4646,21482
22.4703,19897
22.4761,20869
22.4818,21059
22.4875,21044
22.4932,21738
